Record Length,20000,Points,-32.00000000,-512.000024319E-3,
Sample Interval,3.20000015E-3,s,-31.99679947,-512.000024319E-3,
Trigger Point,10.0000000E3,Samples,-31.99360085,-512.000024319E-3,
,,,-31.99040031,-512.000024319E-3,
,,,-31.98719978,-512.000024319E-3,
,,,-31.98399925,-512.000024319E-3,
Source,CH1,,-31.98080063,-512.000024319E-3,
Vertical Units,V,,-31.97760010,-512.000024319E-3,
Vertical Scale,100.0000047E-3,,-31.97439957,-512.000024319E-3,
Vertical Offset,0,,-31.97120094,-512.000024319E-3,
Horizontal Units,s,,-31.96800041,-512.000024319E-3,
Horizontal Scale,6.40000030,,-31.96479988,-512.000024319E-3,
Pt Fmt,Y,,-31.96159935,-512.000024319E-3,
Yzero,0.0,,-31.95840073,-512.000024319E-3,
,,,-31.95520020,-512.000024319E-3,
,,,-31.95199966,-512.000024319E-3,
Note,TBS1102X - ÏÂÎç 4:15:40   13/7/26,,-31.94879913,-512.000024319E-3,
,,,-31.94560051,-512.000024319E-3,
,,,-31.94239998,-512.000024319E-3,
,,,-31.93919945,-512.000024319E-3,
,,,-31.93600082,-512.000024319E-3,
,,,-31.93280029,-512.000024319E-3,
,,,-31.92959976,-512.000024319E-3,
,,,-31.92639923,-512.000024319E-3,
,,,-31.92320061,-512.000024319E-3,
,,,-31.92000008,-512.000024319E-3,
,,,-31.91679955,-512.000024319E-3,
,,,-31.91360092,-512.000024319E-3,
,,,-31.91040039,-512.000024319E-3,
,,,-31.90719986,-512.000024319E-3,
,,,-31.90399933,-512.000024319E-3,
,,,-31.90080070,-512.000024319E-3,
,,,-31.89760017,-512.000024319E-3,
,,,-31.89439964,-512.000024319E-3,
,,,-31.89119911,-512.000024319E-3,
,,,-31.88800049,-512.000024319E-3,
,,,-31.88479996,-512.000024319E-3,
,,,-31.88159943,-512.000024319E-3,
,,,-31.87840080,-512.000024319E-3,
,,,-31.87520027,-512.000024319E-3,
,,,-31.87199974,-512.000024319E-3,
,,,-31.86879921,-512.000024319E-3,
,,,-31.86560059,-512.000024319E-3,
,,,-31.86240005,-512.000024319E-3,
,,,-31.85919952,-512.000024319E-3,
,,,-31.85600090,-512.000024319E-3,
,,,-31.85280037,-512.000024319E-3,
,,,-31.84959984,-512.000024319E-3,
,,,-31.84639931,-512.000024319E-3,
,,,-31.84320068,-512.000024319E-3,
,,,-31.84000015,-512.000024319E-3,
,,,-31.83679962,-512.000024319E-3,
,,,-31.83359909,-512.000024319E-3,
,,,-31.83040047,-512.000024319E-3,
,,,-31.82719994,-512.000024319E-3,
,,,-31.82399940,-512.000024319E-3,
,,,-31.82080078,-512.000024319E-3,
,,,-31.81760025,-512.000024319E-3,
,,,-31.81439972,-512.000024319E-3,
,,,-31.81119919,-512.000024319E-3,
,,,-31.80800056,-512.000024319E-3,
,,,-31.80480003,-512.000024319E-3,
,,,-31.80159950,-512.000024319E-3,
,,,-31.79840088,-512.000024319E-3,
,,,-31.79520035,-512.000024319E-3,
,,,-31.79199982,-512.000024319E-3,
,,,-31.78879929,-512.000024319E-3,
,,,-31.78560066,-512.000024319E-3,
,,,-31.78240013,-512.000024319E-3,
,,,-31.77919960,-512.000024319E-3,
,,,-31.77599907,-512.000024319E-3,
,,,-31.77280045,-512.000024319E-3,
,,,-31.76959991,-512.000024319E-3,
,,,-31.76639938,-512.000024319E-3,
,,,-31.76320076,-512.000024319E-3,
,,,-31.76000023,-512.000024319E-3,
,,,-31.75679970,-512.000024319E-3,
,,,-31.75359917,-512.000024319E-3,
,,,-31.75040054,-512.000024319E-3,
,,,-31.74720001,-512.000024319E-3,
,,,-31.74399948,-512.000024319E-3,
,,,-31.74080086,-512.000024319E-3,
,,,-31.73760033,-512.000024319E-3,
,,,-31.73439980,-512.000024319E-3,
,,,-31.73119926,-512.000024319E-3,
,,,-31.72800064,-512.000024319E-3,
,,,-31.72480011,-512.000024319E-3,
,,,-31.72159958,-512.000024319E-3,
,,,-31.71839905,-512.000024319E-3,
,,,-31.71520042,-512.000024319E-3,
,,,-31.71199989,-512.000024319E-3,
,,,-31.70879936,-512.000024319E-3,
,,,-31.70560074,-512.000024319E-3,
,,,-31.70240021,-512.000024319E-3,
,,,-31.69919968,-512.000024319E-3,
,,,-31.69599915,-512.000024319E-3,
,,,-31.69280052,-512.000024319E-3,
,,,-31.68959999,-512.000024319E-3,
,,,-31.68639946,-512.000024319E-3,
,,,-31.68320084,-512.000024319E-3,
,,,-31.68000031,-512.000024319E-3,
,,,-31.67679977,-512.000024319E-3,
,,,-31.67359924,-512.000024319E-3,
,,,-31.67040062,-512.000024319E-3,
,,,-31.66720009,-512.000024319E-3,
,,,-31.66399956,-512.000024319E-3,
,,,-31.66080093,-512.000024319E-3,
,,,-31.65760040,-512.000024319E-3,
,,,-31.65439987,-512.000024319E-3,
,,,-31.65119934,-512.000024319E-3,
,,,-31.64800072,-512.000024319E-3,
,,,-31.64480019,-512.000024319E-3,
,,,-31.64159966,-512.000024319E-3,
,,,-31.63839912,-512.000024319E-3,
,,,-31.63520050,-512.000024319E-3,
,,,-31.63199997,-512.000024319E-3,
,,,-31.62879944,-512.000024319E-3,
,,,-31.62560081,-512.000024319E-3,
,,,-31.62240028,-512.000024319E-3,
,,,-31.61919975,-512.000024319E-3,
,,,-31.61599922,-512.000024319E-3,
,,,-31.61280060,-512.000024319E-3,
,,,-31.60960007,-512.000024319E-3,
,,,-31.60639954,-512.000024319E-3,
,,,-31.60320091,-512.000024319E-3,
,,,-31.60000038,-512.000024319E-3,
,,,-31.59679985,-512.000024319E-3,
,,,-31.59359932,-512.000024319E-3,
,,,-31.59040070,-512.000024319E-3,
,,,-31.58720016,-512.000024319E-3,
,,,-31.58399963,-512.000024319E-3,
,,,-31.58079910,-512.000024319E-3,
,,,-31.57760048,-512.000024319E-3,
,,,-31.57439995,-512.000024319E-3,
,,,-31.57119942,-512.000024319E-3,
,,,-31.56800079,-512.000024319E-3,
,,,-31.56480026,-512.000024319E-3,
,,,-31.56159973,-512.000024319E-3,
,,,-31.55839920,-512.000024319E-3,
,,,-31.55520058,-512.000024319E-3,
,,,-31.55200005,-512.000024319E-3,
,,,-31.54879951,-512.000024319E-3,
,,,-31.54560089,-512.000024319E-3,
,,,-31.54240036,-512.000024319E-3,
,,,-31.53919983,-512.000024319E-3,
,,,-31.53599930,-512.000024319E-3,
,,,-31.53280067,-512.000024319E-3,
,,,-31.52960014,-512.000024319E-3,
,,,-31.52639961,-512.000024319E-3,
,,,-31.52319908,-512.000024319E-3,
,,,-31.52000046,-512.000024319E-3,
,,,-31.51679993,-512.000024319E-3,
,,,-31.51359940,-512.000024319E-3,
,,,-31.51040077,-512.000024319E-3,
,,,-31.50720024,-512.000024319E-3,
,,,-31.50399971,-512.000024319E-3,
,,,-31.50079918,-512.000024319E-3,
,,,-31.49760056,-512.000024319E-3,
,,,-31.49440002,-512.000024319E-3,
,,,-31.49119949,-512.000024319E-3,
,,,-31.48800087,-512.000024319E-3,
,,,-31.48480034,-512.000024319E-3,
,,,-31.48159981,-512.000024319E-3,
,,,-31.47839928,-512.000024319E-3,
,,,-31.47520065,-512.000024319E-3,
,,,-31.47200012,-512.000024319E-3,
,,,-31.46879959,-512.000024319E-3,
,,,-31.46559906,-512.000024319E-3,
,,,-31.46240044,-512.000024319E-3,
,,,-31.45919991,-512.000024319E-3,
,,,-31.45599937,-512.000024319E-3,
,,,-31.45280075,-512.000024319E-3,
,,,-31.44960022,-512.000024319E-3,
,,,-31.44639969,-512.000024319E-3,
,,,-31.44319916,-512.000024319E-3,
,,,-31.44000053,-512.000024319E-3,
,,,-31.43680000,-512.000024319E-3,
,,,-31.43359947,-512.000024319E-3,
,,,-31.43040085,-512.000024319E-3,
,,,-31.42720032,-512.000024319E-3,
,,,-31.42399979,-512.000024319E-3,
,,,-31.42079926,-512.000024319E-3,
,,,-31.41760063,-512.000024319E-3,
,,,-31.41440010,-512.000024319E-3,
,,,-31.41119957,-512.000024319E-3,
,,,-31.40799904,-512.000024319E-3,
,,,-31.40480042,-512.000024319E-3,
,,,-31.40159988,-512.000024319E-3,
,,,-31.39839935,-512.000024319E-3,
,,,-31.39520073,-512.000024319E-3,
,,,-31.39200020,-512.000024319E-3,
,,,-31.38879967,-512.000024319E-3,
,,,-31.38559914,-512.000024319E-3,
,,,-31.38240051,-512.000024319E-3,
,,,-31.37919998,-512.000024319E-3,
,,,-31.37599945,-512.000024319E-3,
,,,-31.37280083,-512.000024319E-3,
,,,-31.36960030,-512.000024319E-3,
,,,-31.36639977,-512.000024319E-3,
,,,-31.36319923,-512.000024319E-3,
,,,-31.36000061,-512.000024319E-3,
,,,-31.35680008,-512.000024319E-3,
,,,-31.35359955,-512.000024319E-3,
,,,-31.35039902,-512.000024319E-3,
,,,-31.34720039,-512.000024319E-3,
,,,-31.34399986,-512.000024319E-3,
,,,-31.34079933,-512.000024319E-3,
,,,-31.33760071,-512.000024319E-3,
,,,-31.33440018,-512.000024319E-3,
,,,-31.33119965,-512.000024319E-3,
,,,-31.32799911,-512.000024319E-3,
,,,-31.32480049,-512.000024319E-3,
,,,-31.32159996,-512.000024319E-3,
,,,-31.31839943,-512.000024319E-3,
,,,-31.31520081,-512.000024319E-3,
,,,-31.31200027,-512.000024319E-3,
,,,-31.30879974,-512.000024319E-3,
,,,-31.30559921,-512.000024319E-3,
,,,-31.30240059,-512.000024319E-3,
,,,-31.29920006,-512.000024319E-3,
,,,-31.29599953,-512.000024319E-3,
,,,-31.29280090,-512.000024319E-3,
,,,-31.28960037,-512.000024319E-3,
,,,-31.28639984,-512.000024319E-3,
,,,-31.28319931,-512.000024319E-3,
,,,-31.28000069,-512.000024319E-3,
,,,-31.27680016,-512.000024319E-3,
,,,-31.27359962,-512.000024319E-3,
,,,-31.27039909,-512.000024319E-3,
,,,-31.26720047,-512.000024319E-3,
,,,-31.26399994,-512.000024319E-3,
,,,-31.26079941,-512.000024319E-3,
,,,-31.25760078,-512.000024319E-3,
,,,-31.25440025,-512.000024319E-3,
,,,-31.25119972,-512.000024319E-3,
,,,-31.24799919,-512.000024319E-3,
,,,-31.24480057,-512.000024319E-3,
,,,-31.24160004,-512.000024319E-3,
,,,-31.23839951,-512.000024319E-3,
,,,-31.23520088,-512.000024319E-3,
,,,-31.23200035,-512.000024319E-3,
,,,-31.22879982,-512.000024319E-3,
,,,-31.22559929,-512.000024319E-3,
,,,-31.22240067,-512.000024319E-3,
,,,-31.21920013,-512.000024319E-3,
,,,-31.21599960,-512.000024319E-3,
,,,-31.21279907,-512.000024319E-3,
,,,-31.20960045,-512.000024319E-3,
,,,-31.20639992,-512.000024319E-3,
,,,-31.20319939,-512.000024319E-3,
,,,-31.20000076,-512.000024319E-3,
,,,-31.19680023,-512.000024319E-3,
,,,-31.19359970,-512.000024319E-3,
,,,-31.19039917,-512.000024319E-3,
,,,-31.18720055,-512.000024319E-3,
,,,-31.18400002,-512.000024319E-3,
,,,-31.18079948,-512.000024319E-3,
,,,-31.17760086,-512.000024319E-3,
,,,-31.17440033,-512.000024319E-3,
,,,-31.17119980,-512.000024319E-3,
,,,-31.16799927,-512.000024319E-3,
,,,-31.16480064,-512.000024319E-3,
,,,-31.16160011,-512.000024319E-3,
,,,-31.15839958,-512.000024319E-3,
,,,-31.15519905,-512.000024319E-3,
,,,-31.15200043,-512.000024319E-3,
,,,-31.14879990,-512.000024319E-3,
,,,-31.14559937,-512.000024319E-3,
,,,-31.14240074,-512.000024319E-3,
,,,-31.13920021,-512.000024319E-3,
,,,-31.13599968,-512.000024319E-3,
,,,-31.13279915,-512.000024319E-3,
,,,-31.12960052,-512.000024319E-3,
,,,-31.12639999,-512.000024319E-3,
,,,-31.12319946,-512.000024319E-3,
,,,-31.12000084,-512.000024319E-3,
,,,-31.11680031,-512.000024319E-3,
,,,-31.11359978,-512.000024319E-3,
,,,-31.11039925,-512.000024319E-3,
,,,-31.10720062,-512.000024319E-3,
,,,-31.10400009,-512.000024319E-3,
,,,-31.10079956,-512.000024319E-3,
,,,-31.09759903,-512.000024319E-3,
,,,-31.09440041,-512.000024319E-3,
,,,-31.09119987,-512.000024319E-3,
,,,-31.08799934,-512.000024319E-3,
,,,-31.08480072,-512.000024319E-3,
,,,-31.08160019,-512.000024319E-3,
,,,-31.07839966,-512.000024319E-3,
,,,-31.07519913,-512.000024319E-3,
,,,-31.07200050,-512.000024319E-3,
,,,-31.06879997,-512.000024319E-3,
,,,-31.06559944,-512.000024319E-3,
,,,-31.06240082,-512.000024319E-3,
,,,-31.05920029,-512.000024319E-3,
,,,-31.05599976,-512.000024319E-3,
,,,-31.05279922,-512.000024319E-3,
,,,-31.04960060,-512.000024319E-3,
,,,-31.04640007,-512.000024319E-3,
,,,-31.04319954,-512.000024319E-3,
,,,-31.03999901,-512.000024319E-3,
,,,-31.03680038,-512.000024319E-3,
,,,-31.03359985,-512.000024319E-3,
,,,-31.03039932,-512.000024319E-3,
,,,-31.02720070,-512.000024319E-3,
,,,-31.02400017,-512.000024319E-3,
,,,-31.02079964,-512.000024319E-3,
,,,-31.01759911,-512.000024319E-3,
,,,-31.01440048,-512.000024319E-3,
,,,-31.01119995,-512.000024319E-3,
,,,-31.00799942,-512.000024319E-3,
,,,-31.00480080,-512.000024319E-3,
,,,-31.00160027,-512.000024319E-3,
,,,-30.99839973,-512.000024319E-3,
,,,-30.99519920,-512.000024319E-3,
,,,-30.99200058,-512.000024319E-3,
,,,-30.98880005,-512.000024319E-3,
,,,-30.98559952,-512.000024319E-3,
,,,-30.98240089,-512.000024319E-3,
,,,-30.97920036,-512.000024319E-3,
,,,-30.97599983,-512.000024319E-3,
,,,-30.97279930,-512.000024319E-3,
,,,-30.96960068,-512.000024319E-3,
,,,-30.96640015,-512.000024319E-3,
,,,-30.96319962,-512.000024319E-3,
,,,-30.95999908,-512.000024319E-3,
,,,-30.95680046,-512.000024319E-3,
,,,-30.95359993,-512.000024319E-3,
,,,-30.95039940,-512.000024319E-3,
,,,-30.94720078,-512.000024319E-3,
,,,-30.94400024,-512.000024319E-3,
,,,-30.94079971,-512.000024319E-3,
,,,-30.93759918,-512.000024319E-3,
,,,-30.93440056,-512.000024319E-3,
,,,-30.93120003,-512.000024319E-3,
,,,-30.92799950,-512.000024319E-3,
,,,-30.92480087,-512.000024319E-3,
,,,-30.92160034,-512.000024319E-3,
,,,-30.91839981,-512.000024319E-3,
,,,-30.91519928,-512.000024319E-3,
,,,-30.91200066,-512.000024319E-3,
,,,-30.90880013,-512.000024319E-3,
,,,-30.90559959,-512.000024319E-3,
,,,-30.90239906,-512.000024319E-3,
,,,-30.89920044,-512.000024319E-3,
,,,-30.89599991,-512.000024319E-3,
,,,-30.89279938,-512.000024319E-3,
,,,-30.88960075,-512.000024319E-3,
,,,-30.88640022,-512.000024319E-3,
,,,-30.88319969,-512.000024319E-3,
,,,-30.87999916,-512.000024319E-3,
,,,-30.87680054,-512.000024319E-3,
,,,-30.87360001,-512.000024319E-3,
,,,-30.87039948,-512.000024319E-3,
,,,-30.86720085,-512.000024319E-3,
,,,-30.86400032,-512.000024319E-3,
,,,-30.86079979,-512.000024319E-3,
,,,-30.85759926,-512.000024319E-3,
,,,-30.85440063,-512.000024319E-3,
,,,-30.85120010,-512.000024319E-3,
,,,-30.84799957,-512.000024319E-3,
,,,-30.84479904,-512.000024319E-3,
,,,-30.84160042,-512.000024319E-3,
,,,-30.83839989,-512.000024319E-3,
,,,-30.83519936,-512.000024319E-3,
,,,-30.83200073,-512.000024319E-3,
,,,-30.82880020,-512.000024319E-3,
,,,-30.82559967,-512.000024319E-3,
,,,-30.82239914,-512.000024319E-3,
,,,-30.81920052,-512.000024319E-3,
,,,-30.81599998,-512.000024319E-3,
,,,-30.81279945,-512.000024319E-3,
,,,-30.80960083,-512.000024319E-3,
,,,-30.80640030,-512.000024319E-3,
,,,-30.80319977,-512.000024319E-3,
,,,-30.79999924,-512.000024319E-3,
,,,-30.79680061,-512.000024319E-3,
,,,-30.79360008,-512.000024319E-3,
,,,-30.79039955,-512.000024319E-3,
,,,-30.78719902,-512.000024319E-3,
,,,-30.78400040,-512.000024319E-3,
,,,-30.78079987,-512.000024319E-3,
,,,-30.77759933,-512.000024319E-3,
,,,-30.77440071,-512.000024319E-3,
,,,-30.77120018,-512.000024319E-3,
,,,-30.76799965,-512.000024319E-3,
,,,-30.76479912,-512.000024319E-3,
,,,-30.76160049,-512.000024319E-3,
,,,-30.75839996,-512.000024319E-3,
,,,-30.75519943,-512.000024319E-3,
,,,-30.75200081,-512.000024319E-3,
,,,-30.74880028,-512.000024319E-3,
,,,-30.74559975,-512.000024319E-3,
,,,-30.74239922,-512.000024319E-3,
,,,-30.73920059,-512.000024319E-3,
,,,-30.73600006,-512.000024319E-3,
,,,-30.73279953,-512.000024319E-3,
,,,-30.72959900,-512.000024319E-3,
,,,-30.72640038,-512.000024319E-3,
,,,-30.72319984,-512.000024319E-3,
,,,-30.71999931,-512.000024319E-3,
,,,-30.71680069,-512.000024319E-3,
,,,-30.71360016,-512.000024319E-3,
,,,-30.71039963,-512.000024319E-3,
,,,-30.70719910,-512.000024319E-3,
,,,-30.70400047,-512.000024319E-3,
,,,-30.70079994,-512.000024319E-3,
,,,-30.69759941,-512.000024319E-3,
,,,-30.69440079,-512.000024319E-3,
,,,-30.69120026,-512.000024319E-3,
,,,-30.68799973,-512.000024319E-3,
,,,-30.68479919,-512.000024319E-3,
,,,-30.68160057,-512.000024319E-3,
,,,-30.67840004,-512.000024319E-3,
,,,-30.67519951,-512.000024319E-3,
,,,-30.67200089,-512.000024319E-3,
,,,-30.66880035,-512.000024319E-3,
,,,-30.66559982,-512.000024319E-3,
,,,-30.66239929,-512.000024319E-3,
,,,-30.65920067,-512.000024319E-3,
,,,-30.65600014,-512.000024319E-3,
,,,-30.65279961,-512.000024319E-3,
,,,-30.64959908,-512.000024319E-3,
,,,-30.64640045,-512.000024319E-3,
,,,-30.64319992,-512.000024319E-3,
,,,-30.63999939,-512.000024319E-3,
,,,-30.63680077,-512.000024319E-3,
,,,-30.63360023,-512.000024319E-3,
,,,-30.63039970,-512.000024319E-3,
,,,-30.62719917,-512.000024319E-3,
,,,-30.62400055,-512.000024319E-3,
,,,-30.62080002,-512.000024319E-3,
,,,-30.61759949,-512.000024319E-3,
,,,-30.61440086,-512.000024319E-3,
,,,-30.61120033,-512.000024319E-3,
,,,-30.60799980,-512.000024319E-3,
,,,-30.60479927,-512.000024319E-3,
,,,-30.60160065,-512.000024319E-3,
,,,-30.59840012,-512.000024319E-3,
,,,-30.59519958,-512.000024319E-3,
,,,-30.59199905,-512.000024319E-3,
,,,-30.58880043,-512.000024319E-3,
,,,-30.58559990,-512.000024319E-3,
,,,-30.58239937,-512.000024319E-3,
,,,-30.57920074,-512.000024319E-3,
,,,-30.57600021,-512.000024319E-3,
,,,-30.57279968,-512.000024319E-3,
,,,-30.56959915,-512.000024319E-3,
,,,-30.56640053,-512.000024319E-3,
,,,-30.56320000,-512.000024319E-3,
,,,-30.55999947,-512.000024319E-3,
,,,-30.55680084,-512.000024319E-3,
,,,-30.55360031,-512.000024319E-3,
,,,-30.55039978,-512.000024319E-3,
,,,-30.54719925,-512.000024319E-3,
,,,-30.54400063,-512.000024319E-3,
,,,-30.54080009,-512.000024319E-3,
,,,-30.53759956,-512.000024319E-3,
,,,-30.53439903,-512.000024319E-3,
,,,-30.53120041,-512.000024319E-3,
,,,-30.52799988,-512.000024319E-3,
,,,-30.52479935,-512.000024319E-3,
,,,-30.52160072,-512.000024319E-3,
,,,-30.51840019,-512.000024319E-3,
,,,-30.51519966,-512.000024319E-3,
,,,-30.51199913,-512.000024319E-3,
,,,-30.50880051,-512.000024319E-3,
,,,-30.50559998,-512.000024319E-3,
,,,-30.50239944,-512.000024319E-3,
,,,-30.49920082,-512.000024319E-3,
,,,-30.49600029,-512.000024319E-3,
,,,-30.49279976,-512.000024319E-3,
,,,-30.48959923,-512.000024319E-3,
,,,-30.48640060,-512.000024319E-3,
,,,-30.48320007,-512.000024319E-3,
,,,-30.47999954,-512.000024319E-3,
,,,-30.47679901,-512.000024319E-3,
,,,-30.47360039,-512.000024319E-3,
,,,-30.47039986,-512.000024319E-3,
,,,-30.46719933,-512.000024319E-3,
,,,-30.46400070,-512.000024319E-3,
,,,-30.46080017,-512.000024319E-3,
,,,-30.45759964,-512.000024319E-3,
,,,-30.45439911,-512.000024319E-3,
,,,-30.45120049,-512.000024319E-3,
,,,-30.44799995,-512.000024319E-3,
,,,-30.44479942,-512.000024319E-3,
,,,-30.44160080,-512.000024319E-3,
,,,-30.43840027,-512.000024319E-3,
,,,-30.43519974,-512.000024319E-3,
,,,-30.43199921,-512.000024319E-3,
,,,-30.42880058,-512.000024319E-3,
,,,-30.42560005,-512.000024319E-3,
,,,-30.42239952,-512.000024319E-3,
,,,-30.41919899,-512.000024319E-3,
,,,-30.41600037,-512.000024319E-3,
,,,-30.41279984,-512.000024319E-3,
,,,-30.40959930,-512.000024319E-3,
,,,-30.40640068,-512.000024319E-3,
,,,-30.40320015,-512.000024319E-3,
,,,-30.39999962,-512.000024319E-3,
,,,-30.39679909,-512.000024319E-3,
,,,-30.39360046,-512.000024319E-3,
,,,-30.39039993,-512.000024319E-3,
,,,-30.38719940,-512.000024319E-3,
,,,-30.38400078,-512.000024319E-3,
,,,-30.38080025,-512.000024319E-3,
,,,-30.37759972,-512.000024319E-3,
,,,-30.37439919,-512.000024319E-3,
,,,-30.37120056,-512.000024319E-3,
,,,-30.36800003,-512.000024319E-3,
,,,-30.36479950,-512.000024319E-3,
,,,-30.36159897,-512.000024319E-3,
,,,-30.35840034,-512.000024319E-3,
,,,-30.35519981,-512.000024319E-3,
,,,-30.35199928,-512.000024319E-3,
,,,-30.34880066,-512.000024319E-3,
,,,-30.34560013,-512.000024319E-3,
,,,-30.34239960,-512.000024319E-3,
,,,-30.33919907,-512.000024319E-3,
,,,-30.33600044,-512.000024319E-3,
,,,-30.33279991,-512.000024319E-3,
,,,-30.32959938,-512.000024319E-3,
,,,-30.32640076,-512.000024319E-3,
,,,-30.32320023,-512.000024319E-3,
,,,-30.31999969,-512.000024319E-3,
,,,-30.31679916,-512.000024319E-3,
,,,-30.31360054,-512.000024319E-3,
,,,-30.31040001,-512.000024319E-3,
,,,-30.30719948,-512.000024319E-3,
,,,-30.30400085,-512.000024319E-3,
,,,-30.30080032,-512.000024319E-3,
,,,-30.29759979,-512.000024319E-3,
,,,-30.29439926,-512.000024319E-3,
,,,-30.29120064,-512.000024319E-3,
,,,-30.28800011,-512.000024319E-3,
,,,-30.28479958,-512.000024319E-3,
,,,-30.28159904,-512.000024319E-3,
,,,-30.27840042,-512.000024319E-3,
,,,-30.27519989,-512.000024319E-3,
,,,-30.27199936,-512.000024319E-3,
,,,-30.26880074,-512.000024319E-3,
,,,-30.26560020,-512.000024319E-3,
,,,-30.26239967,-512.000024319E-3,
,,,-30.25919914,-512.000024319E-3,
,,,-30.25600052,-512.000024319E-3,
,,,-30.25279999,-512.000024319E-3,
,,,-30.24959946,-512.000024319E-3,
,,,-30.24640083,-512.000024319E-3,
,,,-30.24320030,-512.000024319E-3,
,,,-30.23999977,-512.000024319E-3,
,,,-30.23679924,-512.000024319E-3,
,,,-30.23360062,-512.000024319E-3,
,,,-30.23040009,-512.000024319E-3,
,,,-30.22719955,-512.000024319E-3,
,,,-30.22399902,-512.000024319E-3,
,,,-30.22080040,-512.000024319E-3,
,,,-30.21759987,-512.000024319E-3,
,,,-30.21439934,-512.000024319E-3,
,,,-30.21120071,-512.000024319E-3,
,,,-30.20800018,-512.000024319E-3,
,,,-30.20479965,-512.000024319E-3,
,,,-30.20159912,-512.000024319E-3,
,,,-30.19840050,-512.000024319E-3,
,,,-30.19519997,-512.000024319E-3,
,,,-30.19199944,-512.000024319E-3,
,,,-30.18880081,-512.000024319E-3,
,,,-30.18560028,-512.000024319E-3,
,,,-30.18239975,-512.000024319E-3,
,,,-30.17919922,-512.000024319E-3,
,,,-30.17600060,-512.000024319E-3,
,,,-30.17280006,-512.000024319E-3,
,,,-30.16959953,-512.000024319E-3,
,,,-30.16639900,-512.000024319E-3,
,,,-30.16320038,-512.000024319E-3,
,,,-30.15999985,-512.000024319E-3,
,,,-30.15679932,-512.000024319E-3,
,,,-30.15360069,-512.000024319E-3,
,,,-30.15040016,-512.000024319E-3,
,,,-30.14719963,-512.000024319E-3,
,,,-30.14399910,-512.000024319E-3,
,,,-30.14080048,-512.000024319E-3,
,,,-30.13759995,-512.000024319E-3,
,,,-30.13439941,-512.000024319E-3,
,,,-30.13120079,-512.000024319E-3,
,,,-30.12800026,-512.000024319E-3,
,,,-30.12479973,-512.000024319E-3,
,,,-30.12159920,-512.000024319E-3,
,,,-30.11840057,-512.000024319E-3,
,,,-30.11520004,-512.000024319E-3,
,,,-30.11199951,-512.000024319E-3,
,,,-30.10879898,-512.000024319E-3,
,,,-30.10560036,-512.000024319E-3,
,,,-30.10239983,-512.000024319E-3,
,,,-30.09919930,-512.000024319E-3,
,,,-30.09600067,-512.000024319E-3,
,,,-30.09280014,-512.000024319E-3,
,,,-30.08959961,-512.000024319E-3,
,,,-30.08639908,-512.000024319E-3,
,,,-30.08320045,-512.000024319E-3,
,,,-30.07999992,-512.000024319E-3,
,,,-30.07679939,-512.000024319E-3,
,,,-30.07360077,-512.000024319E-3,
,,,-30.07040024,-512.000024319E-3,
,,,-30.06719971,-512.000024319E-3,
,,,-30.06399918,-512.000024319E-3,
,,,-30.06080055,-512.000024319E-3,
,,,-30.05760002,-512.000024319E-3,
,,,-30.05439949,-512.000024319E-3,
,,,-30.05119896,-512.000024319E-3,
,,,-30.04800034,-512.000024319E-3,
,,,-30.04479980,-512.000024319E-3,
,,,-30.04159927,-512.000024319E-3,
,,,-30.03840065,-512.000024319E-3,
,,,-30.03520012,-512.000024319E-3,
,,,-30.03199959,-512.000024319E-3,
,,,-30.02879906,-512.000024319E-3,
,,,-30.02560043,-512.000024319E-3,
,,,-30.02239990,-512.000024319E-3,
,,,-30.01919937,-512.000024319E-3,
,,,-30.01600075,-512.000024319E-3,
,,,-30.01280022,-512.000024319E-3,
,,,-30.00959969,-512.000024319E-3,
,,,-30.00639915,-512.000024319E-3,
,,,-30.00320053,-512.000024319E-3,
,,,-30.00000000,-512.000024319E-3,
,,,-29.99679947,-512.000024319E-3,
,,,-29.99360085,-512.000024319E-3,
,,,-29.99040031,-512.000024319E-3,
,,,-29.98719978,-512.000024319E-3,
,,,-29.98399925,-512.000024319E-3,
,,,-29.98080063,-512.000024319E-3,
,,,-29.97760010,-512.000024319E-3,
,,,-29.97439957,-512.000024319E-3,
,,,-29.97119904,-512.000024319E-3,
,,,-29.96800041,-512.000024319E-3,
,,,-29.96479988,-512.000024319E-3,
,,,-29.96159935,-512.000024319E-3,
,,,-29.95840073,-512.000024319E-3,
,,,-29.95520020,-512.000024319E-3,
,,,-29.95199966,-512.000024319E-3,
,,,-29.94879913,-512.000024319E-3,
,,,-29.94560051,-512.000024319E-3,
,,,-29.94239998,-512.000024319E-3,
,,,-29.93919945,-512.000024319E-3,
,,,-29.93600082,-512.000024319E-3,
,,,-29.93280029,-512.000024319E-3,
,,,-29.92959976,-512.000024319E-3,
,,,-29.92639923,-512.000024319E-3,
,,,-29.92320061,-512.000024319E-3,
,,,-29.92000008,-512.000024319E-3,
,,,-29.91679955,-512.000024319E-3,
,,,-29.91359901,-512.000024319E-3,
,,,-29.91040039,-512.000024319E-3,
,,,-29.90719986,-512.000024319E-3,
,,,-29.90399933,-512.000024319E-3,
,,,-29.90080070,-512.000024319E-3,
,,,-29.89760017,-512.000024319E-3,
,,,-29.89439964,-512.000024319E-3,
,,,-29.89119911,-512.000024319E-3,
,,,-29.88800049,-512.000024319E-3,
,,,-29.88479996,-512.000024319E-3,
,,,-29.88159943,-512.000024319E-3,
,,,-29.87840080,-512.000024319E-3,
,,,-29.87520027,-512.000024319E-3,
,,,-29.87199974,-512.000024319E-3,
,,,-29.86879921,-512.000024319E-3,
,,,-29.86560059,-512.000024319E-3,
,,,-29.86240005,-512.000024319E-3,
,,,-29.85919952,-512.000024319E-3,
,,,-29.85599899,-512.000024319E-3,
,,,-29.85280037,-512.000024319E-3,
,,,-29.84959984,-512.000024319E-3,
,,,-29.84639931,-512.000024319E-3,
,,,-29.84320068,-512.000024319E-3,
,,,-29.84000015,-512.000024319E-3,
,,,-29.83679962,-512.000024319E-3,
,,,-29.83359909,-512.000024319E-3,
,,,-29.83040047,-512.000024319E-3,
,,,-29.82719994,-512.000024319E-3,
,,,-29.82399940,-512.000024319E-3,
,,,-29.82080078,-512.000024319E-3,
,,,-29.81760025,-512.000024319E-3,
,,,-29.81439972,-512.000024319E-3,
,,,-29.81119919,-512.000024319E-3,
,,,-29.80800056,-512.000024319E-3,
,,,-29.80480003,-512.000024319E-3,
,,,-29.80159950,-512.000024319E-3,
,,,-29.79839897,-512.000024319E-3,
,,,-29.79520035,-512.000024319E-3,
,,,-29.79199982,-512.000024319E-3,
,,,-29.78879929,-512.000024319E-3,
,,,-29.78560066,-512.000024319E-3,
,,,-29.78240013,-512.000024319E-3,
,,,-29.77919960,-512.000024319E-3,
,,,-29.77599907,-512.000024319E-3,
,,,-29.77280045,-512.000024319E-3,
,,,-29.76959991,-512.000024319E-3,
,,,-29.76639938,-512.000024319E-3,
,,,-29.76320076,-512.000024319E-3,
,,,-29.76000023,-512.000024319E-3,
,,,-29.75679970,-512.000024319E-3,
,,,-29.75359917,-512.000024319E-3,
,,,-29.75040054,-512.000024319E-3,
,,,-29.74720001,-512.000024319E-3,
,,,-29.74399948,-512.000024319E-3,
,,,-29.74079895,-512.000024319E-3,
,,,-29.73760033,-512.000024319E-3,
,,,-29.73439980,-512.000024319E-3,
,,,-29.73119926,-512.000024319E-3,
,,,-29.72800064,-512.000024319E-3,
,,,-29.72480011,-512.000024319E-3,
,,,-29.72159958,-512.000024319E-3,
,,,-29.71839905,-512.000024319E-3,
,,,-29.71520042,-512.000024319E-3,
,,,-29.71199989,-512.000024319E-3,
,,,-29.70879936,-512.000024319E-3,
,,,-29.70560074,-512.000024319E-3,
,,,-29.70240021,-512.000024319E-3,
,,,-29.69919968,-512.000024319E-3,
,,,-29.69599915,-512.000024319E-3,
,,,-29.69280052,-512.000024319E-3,
,,,-29.68959999,-512.000024319E-3,
,,,-29.68639946,-512.000024319E-3,
,,,-29.68320084,-512.000024319E-3,
,,,-29.68000031,-512.000024319E-3,
,,,-29.67679977,-512.000024319E-3,
,,,-29.67359924,-512.000024319E-3,
,,,-29.67040062,-512.000024319E-3,
,,,-29.66720009,-512.000024319E-3,
,,,-29.66399956,-512.000024319E-3,
,,,-29.66079903,-512.000024319E-3,
,,,-29.65760040,-512.000024319E-3,
,,,-29.65439987,-512.000024319E-3,
,,,-29.65119934,-512.000024319E-3,
,,,-29.64800072,-512.000024319E-3,
,,,-29.64480019,-512.000024319E-3,
,,,-29.64159966,-512.000024319E-3,
,,,-29.63839912,-512.000024319E-3,
,,,-29.63520050,-512.000024319E-3,
,,,-29.63199997,-512.000024319E-3,
,,,-29.62879944,-512.000024319E-3,
,,,-29.62560081,-512.000024319E-3,
,,,-29.62240028,-512.000024319E-3,
,,,-29.61919975,-512.000024319E-3,
,,,-29.61599922,-512.000024319E-3,
,,,-29.61280060,-512.000024319E-3,
,,,-29.60960007,-512.000024319E-3,
,,,-29.60639954,-512.000024319E-3,
,,,-29.60319901,-512.000024319E-3,
,,,-29.60000038,-512.000024319E-3,
,,,-29.59679985,-512.000024319E-3,
,,,-29.59359932,-512.000024319E-3,
,,,-29.59040070,-512.000024319E-3,
,,,-29.58720016,-512.000024319E-3,
,,,-29.58399963,-512.000024319E-3,
,,,-29.58079910,-512.000024319E-3,
,,,-29.57760048,-512.000024319E-3,
,,,-29.57439995,-512.000024319E-3,
,,,-29.57119942,-512.000024319E-3,
,,,-29.56800079,-512.000024319E-3,
,,,-29.56480026,-512.000024319E-3,
,,,-29.56159973,-512.000024319E-3,
,,,-29.55839920,-512.000024319E-3,
,,,-29.55520058,-512.000024319E-3,
,,,-29.55200005,-512.000024319E-3,
,,,-29.54879951,-512.000024319E-3,
,,,-29.54559898,-512.000024319E-3,
,,,-29.54240036,-512.000024319E-3,
,,,-29.53919983,-512.000024319E-3,
,,,-29.53599930,-512.000024319E-3,
,,,-29.53280067,-512.000024319E-3,
,,,-29.52960014,-512.000024319E-3,
,,,-29.52639961,-512.000024319E-3,
,,,-29.52319908,-512.000024319E-3,
,,,-29.52000046,-512.000024319E-3,
,,,-29.51679993,-512.000024319E-3,
,,,-29.51359940,-512.000024319E-3,
,,,-29.51040077,-512.000024319E-3,
,,,-29.50720024,-512.000024319E-3,
,,,-29.50399971,-512.000024319E-3,
,,,-29.50079918,-512.000024319E-3,
,,,-29.49760056,-512.000024319E-3,
,,,-29.49440002,-512.000024319E-3,
,,,-29.49119949,-512.000024319E-3,
,,,-29.48799896,-512.000024319E-3,
,,,-29.48480034,-512.000024319E-3,
,,,-29.48159981,-512.000024319E-3,
,,,-29.47839928,-512.000024319E-3,
,,,-29.47520065,-512.000024319E-3,
,,,-29.47200012,-512.000024319E-3,
,,,-29.46879959,-512.000024319E-3,
,,,-29.46559906,-512.000024319E-3,
,,,-29.46240044,-512.000024319E-3,
,,,-29.45919991,-512.000024319E-3,
,,,-29.45599937,-512.000024319E-3,
,,,-29.45280075,-512.000024319E-3,
,,,-29.44960022,-512.000024319E-3,
,,,-29.44639969,-512.000024319E-3,
,,,-29.44319916,-512.000024319E-3,
,,,-29.44000053,-512.000024319E-3,
,,,-29.43680000,-512.000024319E-3,
,,,-29.43359947,-512.000024319E-3,
,,,-29.43039894,-512.000024319E-3,
,,,-29.42720032,-512.000024319E-3,
,,,-29.42399979,-512.000024319E-3,
,,,-29.42079926,-512.000024319E-3,
,,,-29.41760063,-512.000024319E-3,
,,,-29.41440010,-512.000024319E-3,
,,,-29.41119957,-512.000024319E-3,
,,,-29.40799904,-512.000024319E-3,
,,,-29.40480042,-512.000024319E-3,
,,,-29.40159988,-512.000024319E-3,
,,,-29.39839935,-512.000024319E-3,
,,,-29.39520073,-512.000024319E-3,
,,,-29.39200020,-512.000024319E-3,
,,,-29.38879967,-512.000024319E-3,
,,,-29.38559914,-512.000024319E-3,
,,,-29.38240051,-512.000024319E-3,
,,,-29.37919998,-512.000024319E-3,
,,,-29.37599945,-512.000024319E-3,
,,,-29.37280083,-512.000024319E-3,
,,,-29.36960030,-512.000024319E-3,
,,,-29.36639977,-512.000024319E-3,
,,,-29.36319923,-512.000024319E-3,
,,,-29.36000061,-512.000024319E-3,
,,,-29.35680008,-512.000024319E-3,
,,,-29.35359955,-512.000024319E-3,
,,,-29.35039902,-512.000024319E-3,
,,,-29.34720039,-512.000024319E-3,
,,,-29.34399986,-512.000024319E-3,
,,,-29.34079933,-512.000024319E-3,
,,,-29.33760071,-512.000024319E-3,
,,,-29.33440018,-512.000024319E-3,
,,,-29.33119965,-512.000024319E-3,
,,,-29.32799911,-512.000024319E-3,
,,,-29.32480049,-512.000024319E-3,
,,,-29.32159996,-512.000024319E-3,
,,,-29.31839943,-512.000024319E-3,
,,,-29.31520081,-512.000024319E-3,
,,,-29.31200027,-512.000024319E-3,
,,,-29.30879974,-512.000024319E-3,
,,,-29.30559921,-512.000024319E-3,
,,,-29.30240059,-512.000024319E-3,
,,,-29.29920006,-512.000024319E-3,
,,,-29.29599953,-512.000024319E-3,
,,,-29.29279900,-512.000024319E-3,
,,,-29.28960037,-512.000024319E-3,
,,,-29.28639984,-512.000024319E-3,
,,,-29.28319931,-512.000024319E-3,
,,,-29.28000069,-512.000024319E-3,
,,,-29.27680016,-512.000024319E-3,
,,,-29.27359962,-512.000024319E-3,
,,,-29.27039909,-512.000024319E-3,
,,,-29.26720047,-512.000024319E-3,
,,,-29.26399994,-512.000024319E-3,
,,,-29.26079941,-512.000024319E-3,
,,,-29.25760078,-512.000024319E-3,
,,,-29.25440025,-512.000024319E-3,
,,,-29.25119972,-512.000024319E-3,
,,,-29.24799919,-512.000024319E-3,
,,,-29.24480057,-512.000024319E-3,
,,,-29.24160004,-512.000024319E-3,
,,,-29.23839951,-512.000024319E-3,
,,,-29.23519897,-512.000024319E-3,
,,,-29.23200035,-512.000024319E-3,
,,,-29.22879982,-512.000024319E-3,
,,,-29.22559929,-512.000024319E-3,
,,,-29.22240067,-512.000024319E-3,
,,,-29.21920013,-512.000024319E-3,
,,,-29.21599960,-512.000024319E-3,
,,,-29.21279907,-512.000024319E-3,
,,,-29.20960045,-512.000024319E-3,
,,,-29.20639992,-512.000024319E-3,
,,,-29.20319939,-512.000024319E-3,
,,,-29.20000076,-512.000024319E-3,
,,,-29.19680023,-512.000024319E-3,
,,,-29.19359970,-512.000024319E-3,
,,,-29.19039917,-512.000024319E-3,
,,,-29.18720055,-512.000024319E-3,
,,,-29.18400002,-512.000024319E-3,
,,,-29.18079948,-512.000024319E-3,
,,,-29.17759895,-512.000024319E-3,
,,,-29.17440033,-512.000024319E-3,
,,,-29.17119980,-512.000024319E-3,
,,,-29.16799927,-512.000024319E-3,
,,,-29.16480064,-512.000024319E-3,
,,,-29.16160011,-512.000024319E-3,
,,,-29.15839958,-512.000024319E-3,
,,,-29.15519905,-512.000024319E-3,
,,,-29.15200043,-512.000024319E-3,
,,,-29.14879990,-512.000024319E-3,
,,,-29.14559937,-512.000024319E-3,
,,,-29.14240074,-512.000024319E-3,
,,,-29.13920021,-512.000024319E-3,
,,,-29.13599968,-512.000024319E-3,
,,,-29.13279915,-512.000024319E-3,
,,,-29.12960052,-512.000024319E-3,
,,,-29.12639999,-512.000024319E-3,
,,,-29.12319946,-512.000024319E-3,
,,,-29.11999893,-512.000024319E-3,
,,,-29.11680031,-512.000024319E-3,
,,,-29.11359978,-512.000024319E-3,
,,,-29.11039925,-512.000024319E-3,
,,,-29.10720062,-512.000024319E-3,
,,,-29.10400009,-512.000024319E-3,
,,,-29.10079956,-512.000024319E-3,
,,,-29.09759903,-512.000024319E-3,
,,,-29.09440041,-512.000024319E-3,
,,,-29.09119987,-512.000024319E-3,
,,,-29.08799934,-512.000024319E-3,
,,,-29.08480072,-512.000024319E-3,
,,,-29.08160019,-512.000024319E-3,
,,,-29.07839966,-512.000024319E-3,
,,,-29.07519913,-512.000024319E-3,
,,,-29.07200050,-512.000024319E-3,
,,,-29.06879997,-512.000024319E-3,
,,,-29.06559944,-512.000024319E-3,
,,,-29.06239891,-512.000024319E-3,
,,,-29.05920029,-512.000024319E-3,
,,,-29.05599976,-512.000024319E-3,
,,,-29.05279922,-512.000024319E-3,
,,,-29.04960060,-512.000024319E-3,
,,,-29.04640007,-512.000024319E-3,
,,,-29.04319954,-512.000024319E-3,
,,,-29.03999901,-512.000024319E-3,
,,,-29.03680038,-512.000024319E-3,
,,,-29.03359985,-512.000024319E-3,
,,,-29.03039932,-512.000024319E-3,
,,,-29.02720070,-512.000024319E-3,
,,,-29.02400017,-512.000024319E-3,
,,,-29.02079964,-512.000024319E-3,
,,,-29.01759911,-512.000024319E-3,
,,,-29.01440048,-512.000024319E-3,
,,,-29.01119995,-512.000024319E-3,
,,,-29.00799942,-512.000024319E-3,
,,,-29.00480080,-512.000024319E-3,
,,,-29.00160027,-512.000024319E-3,
,,,-28.99839973,-512.000024319E-3,
,,,-28.99519920,-512.000024319E-3,
,,,-28.99200058,-512.000024319E-3,
,,,-28.98880005,-512.000024319E-3,
,,,-28.98559952,-512.000024319E-3,
,,,-28.98239899,-512.000024319E-3,
,,,-28.97920036,-512.000024319E-3,
,,,-28.97599983,-512.000024319E-3,
,,,-28.97279930,-512.000024319E-3,
,,,-28.96960068,-512.000024319E-3,
,,,-28.96640015,-512.000024319E-3,
,,,-28.96319962,-512.000024319E-3,
,,,-28.95999908,-512.000024319E-3,
,,,-28.95680046,-512.000024319E-3,
,,,-28.95359993,-512.000024319E-3,
,,,-28.95039940,-512.000024319E-3,
,,,-28.94720078,-512.000024319E-3,
,,,-28.94400024,-512.000024319E-3,
,,,-28.94079971,-512.000024319E-3,
,,,-28.93759918,-512.000024319E-3,
,,,-28.93440056,-512.000024319E-3,
,,,-28.93120003,-512.000024319E-3,
,,,-28.92799950,-512.000024319E-3,
,,,-28.92479897,-512.000024319E-3,
,,,-28.92160034,-512.000024319E-3,
,,,-28.91839981,-512.000024319E-3,
,,,-28.91519928,-512.000024319E-3,
,,,-28.91200066,-512.000024319E-3,
,,,-28.90880013,-512.000024319E-3,
,,,-28.90559959,-512.000024319E-3,
,,,-28.90239906,-512.000024319E-3,
,,,-28.89920044,-512.000024319E-3,
,,,-28.89599991,-512.000024319E-3,
,,,-28.89279938,-512.000024319E-3,
,,,-28.88960075,-512.000024319E-3,
,,,-28.88640022,-512.000024319E-3,
,,,-28.88319969,-512.000024319E-3,
,,,-28.87999916,-512.000024319E-3,
,,,-28.87680054,-512.000024319E-3,
,,,-28.87360001,-512.000024319E-3,
,,,-28.87039948,-512.000024319E-3,
,,,-28.86719894,-512.000024319E-3,
,,,-28.86400032,-512.000024319E-3,
,,,-28.86079979,-512.000024319E-3,
,,,-28.85759926,-512.000024319E-3,
,,,-28.85440063,-512.000024319E-3,
,,,-28.85120010,-512.000024319E-3,
,,,-28.84799957,-512.000024319E-3,
,,,-28.84479904,-512.000024319E-3,
,,,-28.84160042,-512.000024319E-3,
,,,-28.83839989,-512.000024319E-3,
,,,-28.83519936,-512.000024319E-3,
,,,-28.83200073,-512.000024319E-3,
,,,-28.82880020,-512.000024319E-3,
,,,-28.82559967,-512.000024319E-3,
,,,-28.82239914,-512.000024319E-3,
,,,-28.81920052,-512.000024319E-3,
,,,-28.81599998,-512.000024319E-3,
,,,-28.81279945,-512.000024319E-3,
,,,-28.80959892,-512.000024319E-3,
,,,-28.80640030,-512.000024319E-3,
,,,-28.80319977,-512.000024319E-3,
,,,-28.79999924,-512.000024319E-3,
,,,-28.79680061,-512.000024319E-3,
,,,-28.79360008,-512.000024319E-3,
,,,-28.79039955,-512.000024319E-3,
,,,-28.78719902,-512.000024319E-3,
,,,-28.78400040,-512.000024319E-3,
,,,-28.78079987,-512.000024319E-3,
,,,-28.77759933,-512.000024319E-3,
,,,-28.77440071,-512.000024319E-3,
,,,-28.77120018,-512.000024319E-3,
,,,-28.76799965,-512.000024319E-3,
,,,-28.76479912,-512.000024319E-3,
,,,-28.76160049,-512.000024319E-3,
,,,-28.75839996,-512.000024319E-3,
,,,-28.75519943,-512.000024319E-3,
,,,-28.75199890,-512.000024319E-3,
,,,-28.74880028,-512.000024319E-3,
,,,-28.74559975,-512.000024319E-3,
,,,-28.74239922,-512.000024319E-3,
,,,-28.73920059,-512.000024319E-3,
,,,-28.73600006,-512.000024319E-3,
,,,-28.73279953,-512.000024319E-3,
,,,-28.72959900,-512.000024319E-3,
,,,-28.72640038,-512.000024319E-3,
,,,-28.72319984,-512.000024319E-3,
,,,-28.71999931,-512.000024319E-3,
,,,-28.71680069,-512.000024319E-3,
,,,-28.71360016,-512.000024319E-3,
,,,-28.71039963,-512.000024319E-3,
,,,-28.70719910,-512.000024319E-3,
,,,-28.70400047,-512.000024319E-3,
,,,-28.70079994,-512.000024319E-3,
,,,-28.69759941,-512.000024319E-3,
,,,-28.69440079,-512.000024319E-3,
,,,-28.69120026,-512.000024319E-3,
,,,-28.68799973,-512.000024319E-3,
,,,-28.68479919,-512.000024319E-3,
,,,-28.68160057,-512.000024319E-3,
,,,-28.67840004,-512.000024319E-3,
,,,-28.67519951,-512.000024319E-3,
,,,-28.67199898,-512.000024319E-3,
,,,-28.66880035,-512.000024319E-3,
,,,-28.66559982,-512.000024319E-3,
,,,-28.66239929,-512.000024319E-3,
,,,-28.65920067,-512.000024319E-3,
,,,-28.65600014,-512.000024319E-3,
,,,-28.65279961,-512.000024319E-3,
,,,-28.64959908,-512.000024319E-3,
,,,-28.64640045,-512.000024319E-3,
,,,-28.64319992,-512.000024319E-3,
,,,-28.63999939,-512.000024319E-3,
,,,-28.63680077,-512.000024319E-3,
,,,-28.63360023,-512.000024319E-3,
,,,-28.63039970,-512.000024319E-3,
,,,-28.62719917,-512.000024319E-3,
,,,-28.62400055,-512.000024319E-3,
,,,-28.62080002,-512.000024319E-3,
,,,-28.61759949,-512.000024319E-3,
,,,-28.61439896,-512.000024319E-3,
,,,-28.61120033,-512.000024319E-3,
,,,-28.60799980,-512.000024319E-3,
,,,-28.60479927,-512.000024319E-3,
,,,-28.60160065,-512.000024319E-3,
,,,-28.59840012,-512.000024319E-3,
,,,-28.59519958,-512.000024319E-3,
,,,-28.59199905,-512.000024319E-3,
,,,-28.58880043,-512.000024319E-3,
,,,-28.58559990,-512.000024319E-3,
,,,-28.58239937,-512.000024319E-3,
,,,-28.57920074,-512.000024319E-3,
,,,-28.57600021,-512.000024319E-3,
,,,-28.57279968,-512.000024319E-3,
,,,-28.56959915,-512.000024319E-3,
,,,-28.56640053,-512.000024319E-3,
,,,-28.56320000,-512.000024319E-3,
,,,-28.55999947,-512.000024319E-3,
,,,-28.55679893,-512.000024319E-3,
,,,-28.55360031,-512.000024319E-3,
,,,-28.55039978,-512.000024319E-3,
,,,-28.54719925,-512.000024319E-3,
,,,-28.54400063,-512.000024319E-3,
,,,-28.54080009,-512.000024319E-3,
,,,-28.53759956,-512.000024319E-3,
,,,-28.53439903,-512.000024319E-3,
,,,-28.53120041,-512.000024319E-3,
,,,-28.52799988,-512.000024319E-3,
,,,-28.52479935,-512.000024319E-3,
,,,-28.52160072,-512.000024319E-3,
,,,-28.51840019,-512.000024319E-3,
,,,-28.51519966,-512.000024319E-3,
,,,-28.51199913,-512.000024319E-3,
,,,-28.50880051,-512.000024319E-3,
,,,-28.50559998,-512.000024319E-3,
,,,-28.50239944,-512.000024319E-3,
,,,-28.49919891,-512.000024319E-3,
,,,-28.49600029,-512.000024319E-3,
,,,-28.49279976,-512.000024319E-3,
,,,-28.48959923,-512.000024319E-3,
,,,-28.48640060,-512.000024319E-3,
,,,-28.48320007,-512.000024319E-3,
,,,-28.47999954,-512.000024319E-3,
,,,-28.47679901,-512.000024319E-3,
,,,-28.47360039,-512.000024319E-3,
,,,-28.47039986,-512.000024319E-3,
,,,-28.46719933,-512.000024319E-3,
,,,-28.46400070,-512.000024319E-3,
,,,-28.46080017,-512.000024319E-3,
,,,-28.45759964,-512.000024319E-3,
,,,-28.45439911,-512.000024319E-3,
,,,-28.45120049,-512.000024319E-3,
,,,-28.44799995,-512.000024319E-3,
,,,-28.44479942,-512.000024319E-3,
,,,-28.44159889,-512.000024319E-3,
,,,-28.43840027,-512.000024319E-3,
,,,-28.43519974,-512.000024319E-3,
,,,-28.43199921,-512.000024319E-3,
,,,-28.42880058,-512.000024319E-3,
,,,-28.42560005,-512.000024319E-3,
,,,-28.42239952,-512.000024319E-3,
,,,-28.41919899,-512.000024319E-3,
,,,-28.41600037,-512.000024319E-3,
,,,-28.41279984,-512.000024319E-3,
,,,-28.40959930,-512.000024319E-3,
,,,-28.40640068,-512.000024319E-3,
,,,-28.40320015,-512.000024319E-3,
,,,-28.39999962,-512.000024319E-3,
,,,-28.39679909,-512.000024319E-3,
,,,-28.39360046,-512.000024319E-3,
,,,-28.39039993,-512.000024319E-3,
,,,-28.38719940,-512.000024319E-3,
,,,-28.38400078,-512.000024319E-3,
,,,-28.38080025,-512.000024319E-3,
,,,-28.37759972,-512.000024319E-3,
,,,-28.37439919,-512.000024319E-3,
,,,-28.37120056,-512.000024319E-3,
,,,-28.36800003,-512.000024319E-3,
,,,-28.36479950,-512.000024319E-3,
,,,-28.36159897,-512.000024319E-3,
,,,-28.35840034,-512.000024319E-3,
,,,-28.35519981,-512.000024319E-3,
,,,-28.35199928,-512.000024319E-3,
,,,-28.34880066,-512.000024319E-3,
,,,-28.34560013,-512.000024319E-3,
,,,-28.34239960,-512.000024319E-3,
,,,-28.33919907,-512.000024319E-3,
,,,-28.33600044,-512.000024319E-3,
,,,-28.33279991,-512.000024319E-3,
,,,-28.32959938,-512.000024319E-3,
,,,-28.32640076,-512.000024319E-3,
,,,-28.32320023,-512.000024319E-3,
,,,-28.31999969,-512.000024319E-3,
,,,-28.31679916,-512.000024319E-3,
,,,-28.31360054,-512.000024319E-3,
,,,-28.31040001,-4.00000019E-3,
,,,-28.30719948,0.0,
,,,-28.30399895,-4.00000019E-3,
,,,-28.30080032,-16.0000008E-3,
,,,-28.29759979,-4.00000019E-3,
,,,-28.29439926,-8.000000380E-3,
,,,-28.29120064,-4.00000019E-3,
,,,-28.28800011,-4.00000019E-3,
,,,-28.28479958,-8.000000380E-3,
,,,-28.28159904,-4.00000019E-3,
,,,-28.27840042,0.0,
,,,-28.27519989,20.0000014E-3,
,,,-28.27199936,-4.00000019E-3,
,,,-28.26880074,-8.000000380E-3,
,,,-28.26560020,0.0,
,,,-28.26239967,-4.00000019E-3,
,,,-28.25919914,-4.00000019E-3,
,,,-28.25600052,-8.000000380E-3,
,,,-28.25279999,-4.00000019E-3,
,,,-28.24959946,-4.00000019E-3,
,,,-28.24639893,-8.000000380E-3,
,,,-28.24320030,4.00000019E-3,
,,,-28.23999977,-4.00000019E-3,
,,,-28.23679924,-4.00000019E-3,
,,,-28.23360062,-4.00000019E-3,
,,,-28.23040009,16.0000008E-3,
,,,-28.22719955,-60.000002384E-3,
,,,-28.22399902,0.0,
,,,-28.22080040,-4.00000019E-3,
,,,-28.21759987,-12.0000001E-3,
,,,-28.21439934,-8.000000380E-3,
,,,-28.21120071,-12.0000001E-3,
,,,-28.20800018,4.00000019E-3,
,,,-28.20479965,-4.00000019E-3,
,,,-28.20159912,-12.0000001E-3,
,,,-28.19840050,-12.0000001E-3,
,,,-28.19519997,-4.00000019E-3,
,,,-28.19199944,-4.00000019E-3,
,,,-28.18879890,0.0,
,,,-28.18560028,0.0,
,,,-28.18239975,-8.000000380E-3,
,,,-28.17919922,0.0,
,,,-28.17600060,-8.000000380E-3,
,,,-28.17280006,-4.00000019E-3,
,,,-28.16959953,-4.00000019E-3,
,,,-28.16639900,-4.00000019E-3,
,,,-28.16320038,-4.00000019E-3,
,,,-28.15999985,4.00000019E-3,
,,,-28.15679932,-4.00000019E-3,
,,,-28.15360069,0.0,
,,,-28.15040016,0.0,
,,,-28.14719963,4.00000019E-3,
,,,-28.14399910,4.00000019E-3,
,,,-28.14080048,-4.00000019E-3,
,,,-28.13759995,0.0,
,,,-28.13439941,-4.00000019E-3,
,,,-28.13119888,0.0,
,,,-28.12800026,-8.000000380E-3,
,,,-28.12479973,-4.00000019E-3,
,,,-28.12159920,4.00000019E-3,
,,,-28.11840057,-4.00000019E-3,
,,,-28.11520004,-4.00000019E-3,
,,,-28.11199951,-4.00000019E-3,
,,,-28.10879898,-4.00000019E-3,
,,,-28.10560036,-16.0000008E-3,
,,,-28.10239983,-4.00000019E-3,
,,,-28.09919930,0.0,
,,,-28.09600067,-4.00000019E-3,
,,,-28.09280014,-12.0000001E-3,
,,,-28.08959961,0.0,
,,,-28.08639908,0.0,
,,,-28.08320045,0.0,
,,,-28.07999992,0.0,
,,,-28.07679939,-8.000000380E-3,
,,,-28.07359886,0.0,
,,,-28.07040024,-8.000000380E-3,
,,,-28.06719971,-4.00000019E-3,
,,,-28.06399918,-16.0000008E-3,
,,,-28.06080055,-12.0000001E-3,
,,,-28.05760002,0.0,
,,,-28.05439949,4.00000019E-3,
,,,-28.05119896,0.0,
,,,-28.04800034,0.0,
,,,-28.04479980,-4.00000019E-3,
,,,-28.04159927,-8.000000380E-3,
,,,-28.03840065,0.0,
,,,-28.03520012,-4.00000019E-3,
,,,-28.03199959,-8.000000380E-3,
,,,-28.02879906,-4.00000019E-3,
,,,-28.02560043,-8.000000380E-3,
,,,-28.02239990,-4.00000019E-3,
,,,-28.01919937,-8.000000380E-3,
,,,-28.01600075,-8.000000380E-3,
,,,-28.01280022,-20.0000014E-3,
,,,-28.00959969,68.000003695E-3,
,,,-28.00639915,-4.00000019E-3,
,,,-28.00320053,0.0,
,,,-28.00000000,0.0,
,,,-27.99679947,-4.00000019E-3,
,,,-27.99359894,-4.00000019E-3,
,,,-27.99040031,0.0,
,,,-27.98719978,-4.00000019E-3,
,,,-27.98399925,0.0,
,,,-27.98080063,-4.00000019E-3,
,,,-27.97760010,-8.000000380E-3,
,,,-27.97439957,0.0,
,,,-27.97119904,-32.00000152E-3,
,,,-27.96800041,0.0,
,,,-27.96479988,0.0,
,,,-27.96159935,-4.00000019E-3,
,,,-27.95840073,-8.000000380E-3,
,,,-27.95520020,0.0,
,,,-27.95199966,0.0,
,,,-27.94879913,-32.00000152E-3,
,,,-27.94560051,0.0,
,,,-27.94239998,0.0,
,,,-27.93919945,0.0,
,,,-27.93599892,4.00000019E-3,
,,,-27.93280029,-4.00000019E-3,
,,,-27.92959976,0.0,
,,,-27.92639923,-8.000000380E-3,
,,,-27.92320061,0.0,
,,,-27.92000008,20.0000014E-3,
,,,-27.91679955,-4.00000019E-3,
,,,-27.91359901,0.0,
,,,-27.91040039,4.00000019E-3,
,,,-27.90719986,0.0,
,,,-27.90399933,0.0,
,,,-27.90080070,-4.00000019E-3,
,,,-27.89760017,4.00000019E-3,
,,,-27.89439964,0.0,
,,,-27.89119911,4.00000019E-3,
,,,-27.88800049,0.0,
,,,-27.88479996,-4.00000019E-3,
,,,-27.88159943,0.0,
,,,-27.87839890,-4.00000019E-3,
,,,-27.87520027,4.00000019E-3,
,,,-27.87199974,0.0,
,,,-27.86879921,0.0,
,,,-27.86560059,-12.0000001E-3,
,,,-27.86240005,-8.000000380E-3,
,,,-27.85919952,-4.00000019E-3,
,,,-27.85599899,-8.000000380E-3,
,,,-27.85280037,0.0,
,,,-27.84959984,-4.00000019E-3,
,,,-27.84639931,0.0,
,,,-27.84320068,-4.00000019E-3,
,,,-27.84000015,28.00000086E-3,
,,,-27.83679962,0.0,
,,,-27.83359909,-4.00000019E-3,
,,,-27.83040047,-4.00000019E-3,
,,,-27.82719994,0.0,
,,,-27.82399940,0.0,
,,,-27.82079887,-4.00000019E-3,
,,,-27.81760025,0.0,
,,,-27.81439972,0.0,
,,,-27.81119919,0.0,
,,,-27.80800056,4.00000019E-3,
,,,-27.80480003,8.000000380E-3,
,,,-27.80159950,4.00000019E-3,
,,,-27.79839897,0.0,
,,,-27.79520035,0.0,
,,,-27.79199982,4.00000019E-3,
,,,-27.78879929,-4.00000019E-3,
,,,-27.78560066,-4.00000019E-3,
,,,-27.78240013,0.0,
,,,-27.77919960,0.0,
,,,-27.77599907,0.0,
,,,-27.77280045,0.0,
,,,-27.76959991,-4.00000019E-3,
,,,-27.76639938,0.0,
,,,-27.76319885,-4.00000019E-3,
,,,-27.76000023,0.0,
,,,-27.75679970,4.00000019E-3,
,,,-27.75359917,-4.00000019E-3,
,,,-27.75040054,76.000005007E-3,
,,,-27.74720001,-4.00000019E-3,
,,,-27.74399948,0.0,
,,,-27.74079895,-4.00000019E-3,
,,,-27.73760033,-4.00000019E-3,
,,,-27.73439980,0.0,
,,,-27.73119926,4.00000019E-3,
,,,-27.72800064,0.0,
,,,-27.72480011,0.0,
,,,-27.72159958,-4.00000019E-3,
,,,-27.71839905,8.000000380E-3,
,,,-27.71520042,-4.00000019E-3,
,,,-27.71199989,0.0,
,,,-27.70879936,-4.00000019E-3,
,,,-27.70560074,0.0,
,,,-27.70240021,4.00000019E-3,
,,,-27.69919968,-12.0000001E-3,
,,,-27.69599915,-8.000000380E-3,
,,,-27.69280052,-4.00000019E-3,
,,,-27.68959999,4.00000019E-3,
,,,-27.68639946,-4.00000019E-3,
,,,-27.68319893,0.0,
,,,-27.68000031,-48.00000042E-3,
,,,-27.67679977,-4.00000019E-3,
,,,-27.67359924,0.0,
,,,-27.67040062,0.0,
,,,-27.66720009,-4.00000019E-3,
,,,-27.66399956,-4.00000019E-3,
,,,-27.66079903,0.0,
,,,-27.65760040,-4.00000019E-3,
,,,-27.65439987,4.00000019E-3,
,,,-27.65119934,-4.00000019E-3,
,,,-27.64800072,-4.00000019E-3,
,,,-27.64480019,-12.0000001E-3,
,,,-27.64159966,0.0,
,,,-27.63839912,12.0000001E-3,
,,,-27.63520050,-4.00000019E-3,
,,,-27.63199997,0.0,
,,,-27.62879944,-8.000000380E-3,
,,,-27.62559891,-4.00000019E-3,
,,,-27.62240028,-8.000000380E-3,
,,,-27.61919975,24.00000021E-3,
,,,-27.61599922,0.0,
,,,-27.61280060,-4.00000019E-3,
,,,-27.60960007,0.0,
,,,-27.60639954,-4.00000019E-3,
,,,-27.60319901,-4.00000019E-3,
,,,-27.60000038,-4.00000019E-3,
,,,-27.59679985,0.0,
,,,-27.59359932,4.00000019E-3,
,,,-27.59040070,0.0,
,,,-27.58720016,-8.000000380E-3,
,,,-27.58399963,0.0,
,,,-27.58079910,0.0,
,,,-27.57760048,0.0,
,,,-27.57439995,-4.00000019E-3,
,,,-27.57119942,-4.00000019E-3,
,,,-27.56799889,-4.00000019E-3,
,,,-27.56480026,4.00000019E-3,
,,,-27.56159973,8.000000380E-3,
,,,-27.55839920,-12.0000001E-3,
,,,-27.55520058,-4.00000019E-3,
,,,-27.55200005,-4.00000019E-3,
,,,-27.54879951,-16.0000008E-3,
,,,-27.54559898,0.0,
,,,-27.54240036,-4.00000019E-3,
,,,-27.53919983,-4.00000019E-3,
,,,-27.53599930,-4.00000019E-3,
,,,-27.53280067,4.00000019E-3,
,,,-27.52960014,-4.00000019E-3,
,,,-27.52639961,-4.00000019E-3,
,,,-27.52319908,4.00000019E-3,
,,,-27.52000046,-8.000000380E-3,
,,,-27.51679993,-8.000000380E-3,
,,,-27.51359940,12.0000001E-3,
,,,-27.51039886,0.0,
,,,-27.50720024,0.0,
,,,-27.50399971,0.0,
,,,-27.50079918,0.0,
,,,-27.49760056,4.00000019E-3,
,,,-27.49440002,-8.000000380E-3,
,,,-27.49119949,8.000000380E-3,
,,,-27.48799896,-16.0000008E-3,
,,,-27.48480034,4.00000019E-3,
,,,-27.48159981,4.00000019E-3,
,,,-27.47839928,0.0,
,,,-27.47520065,-4.00000019E-3,
,,,-27.47200012,-8.000000380E-3,
,,,-27.46879959,-4.00000019E-3,
,,,-27.46559906,-4.00000019E-3,
,,,-27.46240044,-8.000000380E-3,
,,,-27.45919991,-4.00000019E-3,
,,,-27.45599937,-4.00000019E-3,
,,,-27.45279884,0.0,
,,,-27.44960022,-16.0000008E-3,
,,,-27.44639969,0.0,
,,,-27.44319916,4.00000019E-3,
,,,-27.44000053,0.0,
,,,-27.43680000,8.000000380E-3,
,,,-27.43359947,-8.000000380E-3,
,,,-27.43039894,-4.00000019E-3,
,,,-27.42720032,0.0,
,,,-27.42399979,-4.00000019E-3,
,,,-27.42079926,4.00000019E-3,
,,,-27.41760063,80.000005662E-3,
,,,-27.41440010,-4.00000019E-3,
,,,-27.41119957,0.0,
,,,-27.40799904,-4.00000019E-3,
,,,-27.40480042,0.0,
,,,-27.40159988,0.0,
,,,-27.39839935,4.00000019E-3,
,,,-27.39520073,-8.000000380E-3,
,,,-27.39200020,4.00000019E-3,
,,,-27.38879967,-8.000000380E-3,
,,,-27.38559914,0.0,
,,,-27.38240051,0.0,
,,,-27.37919998,0.0,
,,,-27.37599945,0.0,
,,,-27.37279892,-4.00000019E-3,
,,,-27.36960030,-4.00000019E-3,
,,,-27.36639977,-4.00000019E-3,
,,,-27.36319923,0.0,
,,,-27.36000061,0.0,
,,,-27.35680008,0.0,
,,,-27.35359955,0.0,
,,,-27.35039902,0.0,
,,,-27.34720039,-8.000000380E-3,
,,,-27.34399986,0.0,
,,,-27.34079933,-4.00000019E-3,
,,,-27.33760071,8.000000380E-3,
,,,-27.33440018,-4.00000019E-3,
,,,-27.33119965,0.0,
,,,-27.32799911,-4.00000019E-3,
,,,-27.32480049,0.0,
,,,-27.32159996,0.0,
,,,-27.31839943,-4.00000019E-3,
,,,-27.31519890,0.0,
,,,-27.31200027,0.0,
,,,-27.30879974,-4.00000019E-3,
,,,-27.30559921,0.0,
,,,-27.30240059,-4.00000019E-3,
,,,-27.29920006,-4.00000019E-3,
,,,-27.29599953,-4.00000019E-3,
,,,-27.29279900,0.0,
,,,-27.28960037,0.0,
,,,-27.28639984,0.0,
,,,-27.28319931,0.0,
,,,-27.28000069,-4.00000019E-3,
,,,-27.27680016,4.00000019E-3,
,,,-27.27359962,-8.000000380E-3,
,,,-27.27039909,4.00000019E-3,
,,,-27.26720047,-28.00000086E-3,
,,,-27.26399994,0.0,
,,,-27.26079941,-4.00000019E-3,
,,,-27.25759888,12.0000001E-3,
,,,-27.25440025,4.00000019E-3,
,,,-27.25119972,16.0000008E-3,
,,,-27.24799919,-4.00000019E-3,
,,,-27.24480057,0.0,
,,,-27.24160004,4.00000019E-3,
,,,-27.23839951,0.0,
,,,-27.23519897,0.0,
,,,-27.23200035,8.000000380E-3,
,,,-27.22879982,-104.0000021E-3,
,,,-27.22559929,0.0,
,,,-27.22240067,-4.00000019E-3,
,,,-27.21920013,0.0,
,,,-27.21599960,0.0,
,,,-27.21279907,4.00000019E-3,
,,,-27.20960045,-12.0000001E-3,
,,,-27.20639992,0.0,
,,,-27.20319939,0.0,
,,,-27.19999886,4.00000019E-3,
,,,-27.19680023,4.00000019E-3,
,,,-27.19359970,-4.00000019E-3,
,,,-27.19039917,-12.0000001E-3,
,,,-27.18720055,-12.0000001E-3,
,,,-27.18400002,-8.000000380E-3,
,,,-27.18079948,0.0,
,,,-27.17759895,-4.00000019E-3,
,,,-27.17440033,-4.00000019E-3,
,,,-27.17119980,-4.00000019E-3,
,,,-27.16799927,-4.00000019E-3,
,,,-27.16480064,4.00000019E-3,
,,,-27.16160011,0.0,
,,,-27.15839958,0.0,
,,,-27.15519905,-4.00000019E-3,
,,,-27.15200043,0.0,
,,,-27.14879990,-28.00000086E-3,
,,,-27.14559937,-12.0000001E-3,
,,,-27.14239883,0.0,
,,,-27.13920021,4.00000019E-3,
,,,-27.13599968,0.0,
,,,-27.13279915,4.00000019E-3,
,,,-27.12960052,4.00000019E-3,
,,,-27.12639999,-4.00000019E-3,
,,,-27.12319946,0.0,
,,,-27.11999893,0.0,
,,,-27.11680031,-4.00000019E-3,
,,,-27.11359978,-4.00000019E-3,
,,,-27.11039925,-8.000000380E-3,
,,,-27.10720062,0.0,
,,,-27.10400009,0.0,
,,,-27.10079956,4.00000019E-3,
,,,-27.09759903,12.0000001E-3,
,,,-27.09440041,0.0,
,,,-27.09119987,0.0,
,,,-27.08799934,-4.00000019E-3,
,,,-27.08480072,-4.00000019E-3,
,,,-27.08160019,-16.0000008E-3,
,,,-27.07839966,12.0000001E-3,
,,,-27.07519913,0.0,
,,,-27.07200050,0.0,
,,,-27.06879997,0.0,
,,,-27.06559944,-4.00000019E-3,
,,,-27.06239891,0.0,
,,,-27.05920029,-4.00000019E-3,
,,,-27.05599976,-4.00000019E-3,
,,,-27.05279922,-4.00000019E-3,
,,,-27.04960060,0.0,
,,,-27.04640007,-8.000000380E-3,
,,,-27.04319954,4.00000019E-3,
,,,-27.03999901,0.0,
,,,-27.03680038,-4.00000019E-3,
,,,-27.03359985,4.00000019E-3,
,,,-27.03039932,0.0,
,,,-27.02720070,-4.00000019E-3,
,,,-27.02400017,-4.00000019E-3,
,,,-27.02079964,0.0,
,,,-27.01759911,0.0,
,,,-27.01440048,-4.00000019E-3,
,,,-27.01119995,0.0,
,,,-27.00799942,0.0,
,,,-27.00479889,-4.00000019E-3,
,,,-27.00160027,12.0000001E-3,
,,,-26.99839973,4.00000019E-3,
,,,-26.99519920,-4.00000019E-3,
,,,-26.99200058,0.0,
,,,-26.98880005,4.00000019E-3,
,,,-26.98559952,-4.00000019E-3,
,,,-26.98239899,-4.00000019E-3,
,,,-26.97920036,-4.00000019E-3,
,,,-26.97599983,0.0,
,,,-26.97279930,0.0,
,,,-26.96960068,-4.00000019E-3,
,,,-26.96640015,-4.00000019E-3,
,,,-26.96319962,0.0,
,,,-26.95999908,-12.0000001E-3,
,,,-26.95680046,-24.00000021E-3,
,,,-26.95359993,0.0,
,,,-26.95039940,0.0,
,,,-26.94719887,-4.00000019E-3,
,,,-26.94400024,0.0,
,,,-26.94079971,-4.00000019E-3,
,,,-26.93759918,0.0,
,,,-26.93440056,0.0,
,,,-26.93120003,-4.00000019E-3,
,,,-26.92799950,0.0,
,,,-26.92479897,0.0,
,,,-26.92160034,-4.00000019E-3,
,,,-26.91839981,0.0,
,,,-26.91519928,40.00000283E-3,
,,,-26.91200066,4.00000019E-3,
,,,-26.90880013,0.0,
,,,-26.90559959,0.0,
,,,-26.90239906,-4.00000019E-3,
,,,-26.89920044,-8.000000380E-3,
,,,-26.89599991,16.0000008E-3,
,,,-26.89279938,0.0,
,,,-26.88959885,0.0,
,,,-26.88640022,0.0,
,,,-26.88319969,0.0,
,,,-26.87999916,0.0,
,,,-26.87680054,-4.00000019E-3,
,,,-26.87360001,-4.00000019E-3,
,,,-26.87039948,0.0,
,,,-26.86719894,0.0,
,,,-26.86400032,4.00000019E-3,
,,,-26.86079979,0.0,
,,,-26.85759926,-4.00000019E-3,
,,,-26.85440063,-8.000000380E-3,
,,,-26.85120010,4.00000019E-3,
,,,-26.84799957,8.000000380E-3,
,,,-26.84479904,-8.000000380E-3,
,,,-26.84160042,-4.00000019E-3,
,,,-26.83839989,0.0,
,,,-26.83519936,-4.00000019E-3,
,,,-26.83199883,-4.00000019E-3,
,,,-26.82880020,0.0,
,,,-26.82559967,4.00000019E-3,
,,,-26.82239914,-8.000000380E-3,
,,,-26.81920052,0.0,
,,,-26.81599998,4.00000019E-3,
,,,-26.81279945,-4.00000019E-3,
,,,-26.80959892,-4.00000019E-3,
,,,-26.80640030,8.000000380E-3,
,,,-26.80319977,0.0,
,,,-26.79999924,4.00000019E-3,
,,,-26.79680061,-8.000000380E-3,
,,,-26.79360008,-4.00000019E-3,
,,,-26.79039955,0.0,
,,,-26.78719902,-4.00000019E-3,
,,,-26.78400040,0.0,
,,,-26.78079987,-4.00000019E-3,
,,,-26.77759933,0.0,
,,,-26.77439880,0.0,
,,,-26.77120018,-4.00000019E-3,
,,,-26.76799965,0.0,
,,,-26.76479912,4.00000019E-3,
,,,-26.76160049,0.0,
,,,-26.75839996,4.00000019E-3,
,,,-26.75519943,0.0,
,,,-26.75199890,0.0,
,,,-26.74880028,-4.00000019E-3,
,,,-26.74559975,-64.000003040E-3,
,,,-26.74239922,0.0,
,,,-26.73920059,4.00000019E-3,
,,,-26.73600006,0.0,
,,,-26.73279953,0.0,
,,,-26.72959900,0.0,
,,,-26.72640038,0.0,
,,,-26.72319984,20.0000014E-3,
,,,-26.71999931,0.0,
,,,-26.71680069,0.0,
,,,-26.71360016,-4.00000019E-3,
,,,-26.71039963,0.0,
,,,-26.70719910,0.0,
,,,-26.70400047,0.0,
,,,-26.70079994,0.0,
,,,-26.69759941,0.0,
,,,-26.69439888,-4.00000019E-3,
,,,-26.69120026,-4.00000019E-3,
,,,-26.68799973,0.0,
,,,-26.68479919,0.0,
,,,-26.68160057,-4.00000019E-3,
,,,-26.67840004,-12.0000001E-3,
,,,-26.67519951,0.0,
,,,-26.67199898,-8.000000380E-3,
,,,-26.66880035,16.0000008E-3,
,,,-26.66559982,0.0,
,,,-26.66239929,-4.00000019E-3,
,,,-26.65920067,-8.000000380E-3,
,,,-26.65600014,-4.00000019E-3,
,,,-26.65279961,0.0,
,,,-26.64959908,4.00000019E-3,
,,,-26.64640045,0.0,
,,,-26.64319992,4.00000019E-3,
,,,-26.63999939,-4.00000019E-3,
,,,-26.63679886,4.00000019E-3,
,,,-26.63360023,0.0,
,,,-26.63039970,-8.000000380E-3,
,,,-26.62719917,-4.00000019E-3,
,,,-26.62400055,-4.00000019E-3,
,,,-26.62080002,0.0,
,,,-26.61759949,-4.00000019E-3,
,,,-26.61439896,0.0,
,,,-26.61120033,0.0,
,,,-26.60799980,-8.000000380E-3,
,,,-26.60479927,0.0,
,,,-26.60160065,0.0,
,,,-26.59840012,-4.00000019E-3,
,,,-26.59519958,0.0,
,,,-26.59199905,0.0,
,,,-26.58880043,-4.00000019E-3,
,,,-26.58559990,0.0,
,,,-26.58239937,-4.00000019E-3,
,,,-26.57919884,-8.000000380E-3,
,,,-26.57600021,-4.00000019E-3,
,,,-26.57279968,-4.00000019E-3,
,,,-26.56959915,4.00000019E-3,
,,,-26.56640053,24.00000021E-3,
,,,-26.56320000,0.0,
,,,-26.55999947,-4.00000019E-3,
,,,-26.55679893,-4.00000019E-3,
,,,-26.55360031,-4.00000019E-3,
,,,-26.55039978,4.00000019E-3,
,,,-26.54719925,-4.00000019E-3,
,,,-26.54400063,-4.00000019E-3,
,,,-26.54080009,8.000000380E-3,
,,,-26.53759956,-4.00000019E-3,
,,,-26.53439903,-4.00000019E-3,
,,,-26.53120041,0.0,
,,,-26.52799988,4.00000019E-3,
,,,-26.52479935,4.00000019E-3,
,,,-26.52159882,4.00000019E-3,
,,,-26.51840019,-4.00000019E-3,
,,,-26.51519966,-60.000002384E-3,
,,,-26.51199913,0.0,
,,,-26.50880051,4.00000019E-3,
,,,-26.50559998,0.0,
,,,-26.50239944,0.0,
,,,-26.49919891,8.000000380E-3,
,,,-26.49600029,4.00000019E-3,
,,,-26.49279976,0.0,
,,,-26.48959923,4.00000019E-3,
,,,-26.48640060,0.0,
,,,-26.48320007,-20.0000014E-3,
,,,-26.47999954,0.0,
,,,-26.47679901,0.0,
,,,-26.47360039,4.00000019E-3,
,,,-26.47039986,-4.00000019E-3,
,,,-26.46719933,0.0,
,,,-26.46399879,0.0,
,,,-26.46080017,0.0,
,,,-26.45759964,-4.00000019E-3,
,,,-26.45439911,-4.00000019E-3,
,,,-26.45120049,0.0,
,,,-26.44799995,-4.00000019E-3,
,,,-26.44479942,-4.00000019E-3,
,,,-26.44159889,0.0,
,,,-26.43840027,0.0,
,,,-26.43519974,-4.00000019E-3,
,,,-26.43199921,-4.00000019E-3,
,,,-26.42880058,4.00000019E-3,
,,,-26.42560005,8.000000380E-3,
,,,-26.42239952,4.00000019E-3,
,,,-26.41919899,-4.00000019E-3,
,,,-26.41600037,0.0,
,,,-26.41279984,0.0,
,,,-26.40959930,4.00000019E-3,
,,,-26.40640068,0.0,
,,,-26.40320015,-4.00000019E-3,
,,,-26.39999962,4.00000019E-3,
,,,-26.39679909,0.0,
,,,-26.39360046,0.0,
,,,-26.39039993,0.0,
,,,-26.38719940,0.0,
,,,-26.38399887,0.0,
,,,-26.38080025,-4.00000019E-3,
,,,-26.37759972,0.0,
,,,-26.37439919,0.0,
,,,-26.37120056,4.00000019E-3,
,,,-26.36800003,0.0,
,,,-26.36479950,0.0,
,,,-26.36159897,0.0,
,,,-26.35840034,-8.000000380E-3,
,,,-26.35519981,-48.00000042E-3,
,,,-26.35199928,0.0,
,,,-26.34880066,-8.000000380E-3,
,,,-26.34560013,4.00000019E-3,
,,,-26.34239960,-4.00000019E-3,
,,,-26.33919907,-4.00000019E-3,
,,,-26.33600044,-4.00000019E-3,
,,,-26.33279991,-4.00000019E-3,
,,,-26.32959938,-4.00000019E-3,
,,,-26.32639885,-4.00000019E-3,
,,,-26.32320023,0.0,
,,,-26.31999969,0.0,
,,,-26.31679916,4.00000019E-3,
,,,-26.31360054,0.0,
,,,-26.31040001,0.0,
,,,-26.30719948,4.00000019E-3,
,,,-26.30399895,0.0,
,,,-26.30080032,4.00000019E-3,
,,,-26.29759979,0.0,
,,,-26.29439926,4.00000019E-3,
,,,-26.29120064,-4.00000019E-3,
,,,-26.28800011,0.0,
,,,-26.28479958,-4.00000019E-3,
,,,-26.28159904,0.0,
,,,-26.27840042,0.0,
,,,-26.27519989,0.0,
,,,-26.27199936,0.0,
,,,-26.26879883,4.00000019E-3,
,,,-26.26560020,-8.000000380E-3,
,,,-26.26239967,-4.00000019E-3,
,,,-26.25919914,0.0,
,,,-26.25600052,12.0000001E-3,
,,,-26.25279999,-12.0000001E-3,
,,,-26.24959946,0.0,
,,,-26.24639893,52.00000107E-3,
,,,-26.24320030,-4.00000019E-3,
,,,-26.23999977,16.0000008E-3,
,,,-26.23679924,0.0,
,,,-26.23360062,0.0,
,,,-26.23040009,-4.00000019E-3,
,,,-26.22719955,-8.000000380E-3,
,,,-26.22399902,-4.00000019E-3,
,,,-26.22080040,4.00000019E-3,
,,,-26.21759987,4.00000019E-3,
,,,-26.21439934,-4.00000019E-3,
,,,-26.21119881,-4.00000019E-3,
,,,-26.20800018,0.0,
,,,-26.20479965,0.0,
,,,-26.20159912,4.00000019E-3,
,,,-26.19840050,0.0,
,,,-26.19519997,-4.00000019E-3,
,,,-26.19199944,0.0,
,,,-26.18879890,0.0,
,,,-26.18560028,0.0,
,,,-26.18239975,0.0,
,,,-26.17919922,4.00000019E-3,
,,,-26.17600060,-4.00000019E-3,
,,,-26.17280006,4.00000019E-3,
,,,-26.16959953,4.00000019E-3,
,,,-26.16639900,4.00000019E-3,
,,,-26.16320038,-4.00000019E-3,
,,,-26.15999985,8.000000380E-3,
,,,-26.15679932,0.0,
,,,-26.15359879,0.0,
,,,-26.15040016,0.0,
,,,-26.14719963,-4.00000019E-3,
,,,-26.14399910,0.0,
,,,-26.14080048,-4.00000019E-3,
,,,-26.13759995,-8.000000380E-3,
,,,-26.13439941,-4.00000019E-3,
,,,-26.13119888,4.00000019E-3,
,,,-26.12800026,4.00000019E-3,
,,,-26.12479973,0.0,
,,,-26.12159920,0.0,
,,,-26.11840057,0.0,
,,,-26.11520004,0.0,
,,,-26.11199951,20.0000014E-3,
,,,-26.10879898,4.00000019E-3,
,,,-26.10560036,0.0,
,,,-26.10239983,0.0,
,,,-26.09919930,0.0,
,,,-26.09600067,0.0,
,,,-26.09280014,0.0,
,,,-26.08959961,-4.00000019E-3,
,,,-26.08639908,-12.0000001E-3,
,,,-26.08320045,0.0,
,,,-26.07999992,0.0,
,,,-26.07679939,-4.00000019E-3,
,,,-26.07359886,0.0,
,,,-26.07040024,0.0,
,,,-26.06719971,0.0,
,,,-26.06399918,4.00000019E-3,
,,,-26.06080055,0.0,
,,,-26.05760002,0.0,
,,,-26.05439949,-4.00000019E-3,
,,,-26.05119896,0.0,
,,,-26.04800034,0.0,
,,,-26.04479980,0.0,
,,,-26.04159927,8.000000380E-3,
,,,-26.03840065,-4.00000019E-3,
,,,-26.03520012,4.00000019E-3,
,,,-26.03199959,0.0,
,,,-26.02879906,0.0,
,,,-26.02560043,0.0,
,,,-26.02239990,4.00000019E-3,
,,,-26.01919937,0.0,
,,,-26.01599884,0.0,
,,,-26.01280022,-4.00000019E-3,
,,,-26.00959969,0.0,
,,,-26.00639915,4.00000019E-3,
,,,-26.00320053,0.0,
,,,-26.00000000,0.0,
,,,-25.99679947,-4.00000019E-3,
,,,-25.99359894,-4.00000019E-3,
,,,-25.99040031,0.0,
,,,-25.98719978,28.00000086E-3,
,,,-25.98399925,0.0,
,,,-25.98080063,4.00000019E-3,
,,,-25.97760010,0.0,
,,,-25.97439957,4.00000019E-3,
,,,-25.97119904,0.0,
,,,-25.96800041,-4.00000019E-3,
,,,-25.96479988,0.0,
,,,-25.96159935,0.0,
,,,-25.95839882,8.000000380E-3,
,,,-25.95520020,4.00000019E-3,
,,,-25.95199966,0.0,
,,,-25.94879913,4.00000019E-3,
,,,-25.94560051,-4.00000019E-3,
,,,-25.94239998,-4.00000019E-3,
,,,-25.93919945,0.0,
,,,-25.93599892,4.00000019E-3,
,,,-25.93280029,0.0,
,,,-25.92959976,4.00000019E-3,
,,,-25.92639923,0.0,
,,,-25.92320061,-8.000000380E-3,
,,,-25.92000008,4.00000019E-3,
,,,-25.91679955,0.0,
,,,-25.91359901,-4.00000019E-3,
,,,-25.91040039,-4.00000019E-3,
,,,-25.90719986,8.000000380E-3,
,,,-25.90399933,0.0,
,,,-25.90079880,0.0,
,,,-25.89760017,-8.000000380E-3,
,,,-25.89439964,0.0,
,,,-25.89119911,-4.00000019E-3,
,,,-25.88800049,4.00000019E-3,
,,,-25.88479996,-4.00000019E-3,
,,,-25.88159943,4.00000019E-3,
,,,-25.87839890,-8.000000380E-3,
,,,-25.87520027,0.0,
,,,-25.87199974,-4.00000019E-3,
,,,-25.86879921,0.0,
,,,-25.86560059,-4.00000019E-3,
,,,-25.86240005,0.0,
,,,-25.85919952,4.00000019E-3,
,,,-25.85599899,-4.00000019E-3,
,,,-25.85280037,0.0,
,,,-25.84959984,4.00000019E-3,
,,,-25.84639931,4.00000019E-3,
,,,-25.84319878,0.0,
,,,-25.84000015,0.0,
,,,-25.83679962,4.00000019E-3,
,,,-25.83359909,0.0,
,,,-25.83040047,44.00000349E-3,
,,,-25.82719994,256.00001216E-3,
,,,-25.82399940,416.000008583E-3,
,,,-25.82079887,504.000008106E-3,
,,,-25.81760025,504.000008106E-3,
,,,-25.81439972,504.000008106E-3,
,,,-25.81119919,504.000008106E-3,
,,,-25.80800056,504.000008106E-3,
,,,-25.80480003,504.000008106E-3,
,,,-25.80159950,504.000008106E-3,
,,,-25.79839897,504.000008106E-3,
,,,-25.79520035,504.000008106E-3,
,,,-25.79199982,504.000008106E-3,
,,,-25.78879929,504.000008106E-3,
,,,-25.78559875,504.000008106E-3,
,,,-25.78240013,504.000008106E-3,
,,,-25.77919960,504.000008106E-3,
,,,-25.77599907,504.000008106E-3,
,,,-25.77280045,504.000008106E-3,
,,,-25.76959991,504.000008106E-3,
,,,-25.76639938,504.000008106E-3,
,,,-25.76319885,504.000008106E-3,
,,,-25.76000023,504.000008106E-3,
,,,-25.75679970,504.000008106E-3,
,,,-25.75359917,504.000008106E-3,
,,,-25.75040054,504.000008106E-3,
,,,-25.74720001,504.000008106E-3,
,,,-25.74399948,504.000008106E-3,
,,,-25.74079895,504.000008106E-3,
,,,-25.73760033,504.000008106E-3,
,,,-25.73439980,504.000008106E-3,
,,,-25.73119926,504.000008106E-3,
,,,-25.72800064,504.000008106E-3,
,,,-25.72480011,504.000008106E-3,
,,,-25.72159958,504.000008106E-3,
,,,-25.71839905,504.000008106E-3,
,,,-25.71520042,504.000008106E-3,
,,,-25.71199989,504.000008106E-3,
,,,-25.70879936,504.000008106E-3,
,,,-25.70559883,504.000008106E-3,
,,,-25.70240021,504.000008106E-3,
,,,-25.69919968,504.000008106E-3,
,,,-25.69599915,504.000008106E-3,
,,,-25.69280052,504.000008106E-3,
,,,-25.68959999,504.000008106E-3,
,,,-25.68639946,504.000008106E-3,
,,,-25.68319893,504.000008106E-3,
,,,-25.68000031,504.000008106E-3,
,,,-25.67679977,504.000008106E-3,
,,,-25.67359924,504.000008106E-3,
,,,-25.67040062,504.000008106E-3,
,,,-25.66720009,504.000008106E-3,
,,,-25.66399956,504.000008106E-3,
,,,-25.66079903,504.000008106E-3,
,,,-25.65760040,504.000008106E-3,
,,,-25.65439987,504.000008106E-3,
,,,-25.65119934,504.000008106E-3,
,,,-25.64799881,504.000008106E-3,
,,,-25.64480019,504.000008106E-3,
,,,-25.64159966,504.000008106E-3,
,,,-25.63839912,504.000008106E-3,
,,,-25.63520050,504.000008106E-3,
,,,-25.63199997,504.000008106E-3,
,,,-25.62879944,504.000008106E-3,
,,,-25.62559891,504.000008106E-3,
,,,-25.62240028,504.000008106E-3,
,,,-25.61919975,504.000008106E-3,
,,,-25.61599922,504.000008106E-3,
,,,-25.61280060,504.000008106E-3,
,,,-25.60960007,504.000008106E-3,
,,,-25.60639954,504.000008106E-3,
,,,-25.60319901,504.000008106E-3,
,,,-25.60000038,504.000008106E-3,
,,,-25.59679985,484.000027180E-3,
,,,-25.59359932,484.000027180E-3,
,,,-25.59039879,468.000024557E-3,
,,,-25.58720016,456.000030041E-3,
,,,-25.58399963,456.000030041E-3,
,,,-25.58079910,448.000013828E-3,
,,,-25.57760048,440.000027418E-3,
,,,-25.57439995,444.000035524E-3,
,,,-25.57119942,436.000019312E-3,
,,,-25.56799889,436.000019312E-3,
,,,-25.56480026,452.000021935E-3,
,,,-25.56159973,436.000019312E-3,
,,,-25.55839920,440.000027418E-3,
,,,-25.55520058,444.000035524E-3,
,,,-25.55200005,436.000019312E-3,
,,,-25.54879951,444.000035524E-3,
,,,-25.54559898,448.000013828E-3,
,,,-25.54240036,444.000035524E-3,
,,,-25.53919983,448.000013828E-3,
,,,-25.53599930,452.000021935E-3,
,,,-25.53279877,448.000013828E-3,
,,,-25.52960014,444.000035524E-3,
,,,-25.52639961,452.000021935E-3,
,,,-25.52319908,444.000035524E-3,
,,,-25.52000046,456.000030041E-3,
,,,-25.51679993,444.000035524E-3,
,,,-25.51359940,440.000027418E-3,
,,,-25.51039886,448.000013828E-3,
,,,-25.50720024,444.000035524E-3,
,,,-25.50399971,440.000027418E-3,
,,,-25.50079918,436.000019312E-3,
,,,-25.49760056,420.000016689E-3,
,,,-25.49440002,428.000032902E-3,
,,,-25.49119949,416.000008583E-3,
,,,-25.48799896,412.000030279E-3,
,,,-25.48480034,404.000014067E-3,
,,,-25.48159981,400.00000596E-3,
,,,-25.47839928,396.00002766E-3,
,,,-25.47519875,392.00001955E-3,
,,,-25.47200012,388.00001144E-3,
,,,-25.46879959,384.00000334E-3,
,,,-25.46559906,372.00000882E-3,
,,,-25.46240044,368.00003052E-3,
,,,-25.45919991,372.00000882E-3,
,,,-25.45599937,360.00001431E-3,
,,,-25.45279884,360.00001431E-3,
,,,-25.44960022,348.00001979E-3,
,,,-25.44639969,336.00002527E-3,
,,,-25.44319916,336.00002527E-3,
,,,-25.44000053,320.00002265E-3,
,,,-25.43680000,324.00000095E-3,
,,,-25.43359947,324.00000095E-3,
,,,-25.43039894,312.00000644E-3,
,,,-25.42720032,316.00001454E-3,
,,,-25.42399979,296.00000381E-3,
,,,-25.42079926,300.00001192E-3,
,,,-25.41760063,284.00000930E-3,
,,,-25.41440010,276.00002289E-3,
,,,-25.41119957,268.00000668E-3,
,,,-25.40799904,268.00000668E-3,
,,,-25.40480042,244.00001764E-3,
,,,-25.40159988,248.00001085E-3,
,,,-25.39839935,248.00001085E-3,
,,,-25.39519882,240.00000954E-3,
,,,-25.39200020,232.00000823E-3,
,,,-25.38879967,224.00000691E-3,
,,,-25.38559914,228.00001502E-3,
,,,-25.38240051,220.00001371E-3,
,,,-25.37919998,212.00001240E-3,
,,,-25.37599945,208.00000429E-3,
,,,-25.37279892,204.00001109E-3,
,,,-25.36960030,184.00001526E-3,
,,,-25.36639977,200.00000298E-3,
,,,-25.36319923,192.00000167E-3,
,,,-25.36000061,180.00000715E-3,
,,,-25.35680008,180.00000715E-3,
,,,-25.35359955,172.00000584E-3,
,,,-25.35039902,168.00001264E-3,
,,,-25.34720039,176.00001395E-3,
,,,-25.34399986,168.00001264E-3,
,,,-25.34079933,164.00000453E-3,
,,,-25.33759880,172.00000584E-3,
,,,-25.33440018,160.00001132E-3,
,,,-25.33119965,156.00000322E-3,
,,,-25.32799911,164.00000453E-3,
,,,-25.32480049,160.00001132E-3,
,,,-25.32159996,156.00000322E-3,
,,,-25.31839943,156.00000322E-3,
,,,-25.31519890,156.00000322E-3,
,,,-25.31200027,160.00001132E-3,
,,,-25.30879974,148.0000019E-3,
,,,-25.30559921,152.00001001E-3,
,,,-25.30240059,148.0000019E-3,
,,,-25.29920006,144.0000087E-3,
,,,-25.29599953,136.0000074E-3,
,,,-25.29279900,156.00000322E-3,
,,,-25.28960037,140.0000006E-3,
,,,-25.28639984,144.0000087E-3,
,,,-25.28319931,124.0000054E-3,
,,,-25.27999878,131.9999993E-3,
,,,-25.27680016,124.0000054E-3,
,,,-25.27359962,116.0000041E-3,
,,,-25.27039909,136.0000074E-3,
,,,-25.26720047,96.000000834E-3,
,,,-25.26399994,120.0000048E-3,
,,,-25.26079941,120.0000048E-3,
,,,-25.25759888,108.0000028E-3,
,,,-25.25440025,116.0000041E-3,
,,,-25.25119972,104.0000021E-3,
,,,-25.24799919,100.0000015E-3,
,,,-25.24480057,104.0000021E-3,
,,,-25.24160004,108.0000028E-3,
,,,-25.23839951,112.0000035E-3,
,,,-25.23519897,104.0000021E-3,
,,,-25.23200035,96.000000834E-3,
,,,-25.22879982,100.0000015E-3,
,,,-25.22559929,108.0000028E-3,
,,,-25.22239876,108.0000028E-3,
,,,-25.21920013,108.0000028E-3,
,,,-25.21599960,112.0000035E-3,
,,,-25.21279907,120.0000048E-3,
,,,-25.20960045,104.0000021E-3,
,,,-25.20639992,108.0000028E-3,
,,,-25.20319939,108.0000028E-3,
,,,-25.19999886,116.0000041E-3,
,,,-25.19680023,112.0000035E-3,
,,,-25.19359970,112.0000035E-3,
,,,-25.19039917,108.0000028E-3,
,,,-25.18720055,112.0000035E-3,
,,,-25.18400002,116.0000041E-3,
,,,-25.18079948,120.0000048E-3,
,,,-25.17759895,116.0000041E-3,
,,,-25.17440033,108.0000028E-3,
,,,-25.17119980,104.0000021E-3,
,,,-25.16799927,108.0000028E-3,
,,,-25.16479874,108.0000028E-3,
,,,-25.16160011,104.0000021E-3,
,,,-25.15839958,100.0000015E-3,
,,,-25.15519905,96.000000834E-3,
,,,-25.15200043,92.000007629E-3,
,,,-25.14879990,84.000006318E-3,
,,,-25.14559937,84.000006318E-3,
,,,-25.14239883,84.000006318E-3,
,,,-25.13920021,84.000006318E-3,
,,,-25.13599968,88.000006974E-3,
,,,-25.13279915,80.000005662E-3,
,,,-25.12960052,84.000006318E-3,
,,,-25.12639999,88.000006974E-3,
,,,-25.12319946,88.000006974E-3,
,,,-25.11999893,92.000007629E-3,
,,,-25.11680031,104.0000021E-3,
,,,-25.11359978,108.0000028E-3,
,,,-25.11039925,112.0000035E-3,
,,,-25.10720062,131.9999993E-3,
,,,-25.10400009,128.0000061E-3,
,,,-25.10079956,148.0000019E-3,
,,,-25.09759903,156.00000322E-3,
,,,-25.09440041,156.00000322E-3,
,,,-25.09119987,168.00001264E-3,
,,,-25.08799934,176.00001395E-3,
,,,-25.08479881,192.00000167E-3,
,,,-25.08160019,204.00001109E-3,
,,,-25.07839966,204.00001109E-3,
,,,-25.07519913,224.00000691E-3,
,,,-25.07200050,220.00001371E-3,
,,,-25.06879997,224.00000691E-3,
,,,-25.06559944,228.00001502E-3,
,,,-25.06239891,228.00001502E-3,
,,,-25.05920029,228.00001502E-3,
,,,-25.05599976,236.00001633E-3,
,,,-25.05279922,236.00001633E-3,
,,,-25.04960060,248.00001085E-3,
,,,-25.04640007,268.00000668E-3,
,,,-25.04319954,256.00001216E-3,
,,,-25.03999901,248.00001085E-3,
,,,-25.03680038,256.00001216E-3,
,,,-25.03359985,240.00000954E-3,
,,,-25.03039932,248.00001085E-3,
,,,-25.02719879,244.00001764E-3,
,,,-25.02400017,240.00000954E-3,
,,,-25.02079964,228.00001502E-3,
,,,-25.01759911,224.00000691E-3,
,,,-25.01440048,208.00000429E-3,
,,,-25.01119995,220.00001371E-3,
,,,-25.00799942,204.00001109E-3,
,,,-25.00479889,180.00000715E-3,
,,,-25.00160027,172.00000584E-3,
,,,-24.99839973,172.00000584E-3,
,,,-24.99519920,156.00000322E-3,
,,,-24.99200058,152.00001001E-3,
,,,-24.98880005,140.0000006E-3,
,,,-24.98559952,124.0000054E-3,
,,,-24.98239899,108.0000028E-3,
,,,-24.97920036,96.000000834E-3,
,,,-24.97599983,88.000006974E-3,
,,,-24.97279930,72.000004351E-3,
,,,-24.96959877,60.000002384E-3,
,,,-24.96640015,52.00000107E-3,
,,,-24.96319962,44.00000349E-3,
,,,-24.95999908,32.00000152E-3,
,,,-24.95680046,20.0000014E-3,
,,,-24.95359993,16.0000008E-3,
,,,-24.95039940,4.00000019E-3,
,,,-24.94719887,-12.0000001E-3,
,,,-24.94400024,-20.0000014E-3,
,,,-24.94079971,-20.0000014E-3,
,,,-24.93759918,-28.00000086E-3,
,,,-24.93440056,-32.00000152E-3,
,,,-24.93120003,-40.00000283E-3,
,,,-24.92799950,-52.00000107E-3,
,,,-24.92479897,-60.000002384E-3,
,,,-24.92160034,-64.000003040E-3,
,,,-24.91839981,-72.000004351E-3,
,,,-24.91519928,-64.000003040E-3,
,,,-24.91199875,-76.000005007E-3,
,,,-24.90880013,-72.000004351E-3,
,,,-24.90559959,-88.000006974E-3,
,,,-24.90239906,-88.000006974E-3,
,,,-24.89920044,-96.000000834E-3,
,,,-24.89599991,-100.0000015E-3,
,,,-24.89279938,-100.0000015E-3,
,,,-24.88959885,-96.000000834E-3,
,,,-24.88640022,-108.0000028E-3,
,,,-24.88319969,-104.0000021E-3,
,,,-24.87999916,-104.0000021E-3,
,,,-24.87680054,-104.0000021E-3,
,,,-24.87360001,-108.0000028E-3,
,,,-24.87039948,-100.0000015E-3,
,,,-24.86719894,-96.000000834E-3,
,,,-24.86400032,-100.0000015E-3,
,,,-24.86079979,-104.0000021E-3,
,,,-24.85759926,-88.000006974E-3,
,,,-24.85439873,-108.0000028E-3,
,,,-24.85120010,-96.000000834E-3,
,,,-24.84799957,-88.000006974E-3,
,,,-24.84479904,-80.000005662E-3,
,,,-24.84160042,-84.000006318E-3,
,,,-24.83839989,-72.000004351E-3,
,,,-24.83519936,-80.000005662E-3,
,,,-24.83199883,-68.000003695E-3,
,,,-24.82880020,-72.000004351E-3,
,,,-24.82559967,-64.000003040E-3,
,,,-24.82239914,-60.000002384E-3,
,,,-24.81920052,-56.000001729E-3,
,,,-24.81599998,-48.00000042E-3,
,,,-24.81279945,-40.00000283E-3,
,,,-24.80959892,-20.0000014E-3,
,,,-24.80640030,-36.00000218E-3,
,,,-24.80319977,-32.00000152E-3,
,,,-24.79999924,-24.00000021E-3,
,,,-24.79679871,24.00000021E-3,
,,,-24.79360008,-12.0000001E-3,
,,,-24.79039955,4.00000019E-3,
,,,-24.78719902,12.0000001E-3,
,,,-24.78400040,8.000000380E-3,
,,,-24.78079987,24.00000021E-3,
,,,-24.77759933,24.00000021E-3,
,,,-24.77439880,28.00000086E-3,
,,,-24.77120018,40.00000283E-3,
,,,-24.76799965,36.00000218E-3,
,,,-24.76479912,48.00000042E-3,
,,,-24.76160049,52.00000107E-3,
,,,-24.75839996,52.00000107E-3,
,,,-24.75519943,52.00000107E-3,
,,,-24.75199890,68.000003695E-3,
,,,-24.74880028,52.00000107E-3,
,,,-24.74559975,4.00000019E-3,
,,,-24.74239922,60.000002384E-3,
,,,-24.73920059,60.000002384E-3,
,,,-24.73600006,52.00000107E-3,
,,,-24.73279953,60.000002384E-3,
,,,-24.72959900,56.000001729E-3,
,,,-24.72640038,52.00000107E-3,
,,,-24.72319984,52.00000107E-3,
,,,-24.71999931,52.00000107E-3,
,,,-24.71679878,48.00000042E-3,
,,,-24.71360016,60.000002384E-3,
,,,-24.71039963,44.00000349E-3,
,,,-24.70719910,44.00000349E-3,
,,,-24.70400047,40.00000283E-3,
,,,-24.70079994,36.00000218E-3,
,,,-24.69759941,28.00000086E-3,
,,,-24.69439888,24.00000021E-3,
,,,-24.69120026,24.00000021E-3,
,,,-24.68799973,28.00000086E-3,
,,,-24.68479919,24.00000021E-3,
,,,-24.68160057,20.0000014E-3,
,,,-24.67840004,24.00000021E-3,
,,,-24.67519951,20.0000014E-3,
,,,-24.67199898,16.0000008E-3,
,,,-24.66880035,16.0000008E-3,
,,,-24.66559982,28.00000086E-3,
,,,-24.66239929,12.0000001E-3,
,,,-24.65919876,20.0000014E-3,
,,,-24.65600014,20.0000014E-3,
,,,-24.65279961,16.0000008E-3,
,,,-24.64959908,12.0000001E-3,
,,,-24.64640045,16.0000008E-3,
,,,-24.64319992,8.000000380E-3,
,,,-24.63999939,16.0000008E-3,
,,,-24.63679886,4.00000019E-3,
,,,-24.63360023,4.00000019E-3,
,,,-24.63039970,0.0,
,,,-24.62719917,4.00000019E-3,
,,,-24.62400055,0.0,
,,,-24.62080002,-8.000000380E-3,
,,,-24.61759949,-12.0000001E-3,
,,,-24.61439896,-8.000000380E-3,
,,,-24.61120033,-16.0000008E-3,
,,,-24.60799980,0.0,
,,,-24.60479927,-8.000000380E-3,
,,,-24.60159874,-12.0000001E-3,
,,,-24.59840012,-12.0000001E-3,
,,,-24.59519958,-8.000000380E-3,
,,,-24.59199905,-12.0000001E-3,
,,,-24.58880043,-20.0000014E-3,
,,,-24.58559990,-16.0000008E-3,
,,,-24.58239937,-16.0000008E-3,
,,,-24.57919884,-16.0000008E-3,
,,,-24.57600021,-28.00000086E-3,
,,,-24.57279968,-28.00000086E-3,
,,,-24.56959915,-32.00000152E-3,
,,,-24.56640053,-32.00000152E-3,
,,,-24.56320000,-28.00000086E-3,
,,,-24.55999947,-32.00000152E-3,
,,,-24.55679893,-28.00000086E-3,
,,,-24.55360031,-28.00000086E-3,
,,,-24.55039978,-28.00000086E-3,
,,,-24.54719925,-32.00000152E-3,
,,,-24.54399872,-32.00000152E-3,
,,,-24.54080009,-28.00000086E-3,
,,,-24.53759956,-32.00000152E-3,
,,,-24.53439903,-32.00000152E-3,
,,,-24.53120041,-28.00000086E-3,
,,,-24.52799988,-12.0000001E-3,
,,,-24.52479935,-20.0000014E-3,
,,,-24.52159882,-20.0000014E-3,
,,,-24.51840019,-16.0000008E-3,
,,,-24.51519966,-16.0000008E-3,
,,,-24.51199913,-16.0000008E-3,
,,,-24.50880051,-12.0000001E-3,
,,,-24.50559998,-12.0000001E-3,
,,,-24.50239944,-4.00000019E-3,
,,,-24.49919891,-4.00000019E-3,
,,,-24.49600029,-12.0000001E-3,
,,,-24.49279976,0.0,
,,,-24.48959923,4.00000019E-3,
,,,-24.48639870,-4.00000019E-3,
,,,-24.48320007,-8.000000380E-3,
,,,-24.47999954,-8.000000380E-3,
,,,-24.47679901,0.0,
,,,-24.47360039,-20.0000014E-3,
,,,-24.47039986,0.0,
,,,-24.46719933,8.000000380E-3,
,,,-24.46399879,0.0,
,,,-24.46080017,-4.00000019E-3,
,,,-24.45759964,4.00000019E-3,
,,,-24.45439911,-20.0000014E-3,
,,,-24.45120049,4.00000019E-3,
,,,-24.44799995,0.0,
,,,-24.44479942,0.0,
,,,-24.44159889,4.00000019E-3,
,,,-24.43840027,0.0,
,,,-24.43519974,8.000000380E-3,
,,,-24.43199921,4.00000019E-3,
,,,-24.42880058,8.000000380E-3,
,,,-24.42560005,8.000000380E-3,
,,,-24.42239952,24.00000021E-3,
,,,-24.41919899,32.00000152E-3,
,,,-24.41600037,20.0000014E-3,
,,,-24.41279984,20.0000014E-3,
,,,-24.40959930,12.0000001E-3,
,,,-24.40639877,24.00000021E-3,
,,,-24.40320015,24.00000021E-3,
,,,-24.39999962,20.0000014E-3,
,,,-24.39679909,24.00000021E-3,
,,,-24.39360046,4.00000019E-3,
,,,-24.39039993,8.000000380E-3,
,,,-24.38719940,20.0000014E-3,
,,,-24.38399887,20.0000014E-3,
,,,-24.38080025,12.0000001E-3,
,,,-24.37759972,16.0000008E-3,
,,,-24.37439919,8.000000380E-3,
,,,-24.37120056,8.000000380E-3,
,,,-24.36800003,-4.00000019E-3,
,,,-24.36479950,8.000000380E-3,
,,,-24.36159897,4.00000019E-3,
,,,-24.35840034,20.0000014E-3,
,,,-24.35519981,4.00000019E-3,
,,,-24.35199928,4.00000019E-3,
,,,-24.34879875,0.0,
,,,-24.34560013,4.00000019E-3,
,,,-24.34239960,8.000000380E-3,
,,,-24.33919907,-4.00000019E-3,
,,,-24.33600044,-8.000000380E-3,
,,,-24.33279991,0.0,
,,,-24.32959938,4.00000019E-3,
,,,-24.32639885,8.000000380E-3,
,,,-24.32320023,12.0000001E-3,
,,,-24.31999969,-4.00000019E-3,
,,,-24.31679916,16.0000008E-3,
,,,-24.31360054,0.0,
,,,-24.31040001,8.000000380E-3,
,,,-24.30719948,12.0000001E-3,
,,,-24.30399895,8.000000380E-3,
,,,-24.30080032,16.0000008E-3,
,,,-24.29759979,12.0000001E-3,
,,,-24.29439926,16.0000008E-3,
,,,-24.29119873,24.00000021E-3,
,,,-24.28800011,16.0000008E-3,
,,,-24.28479958,24.00000021E-3,
,,,-24.28159904,36.00000218E-3,
,,,-24.27840042,36.00000218E-3,
,,,-24.27519989,48.00000042E-3,
,,,-24.27199936,48.00000042E-3,
,,,-24.26879883,60.000002384E-3,
,,,-24.26560020,60.000002384E-3,
,,,-24.26239967,72.000004351E-3,
,,,-24.25919914,84.000006318E-3,
,,,-24.25600052,88.000006974E-3,
,,,-24.25279999,100.0000015E-3,
,,,-24.24959946,108.0000028E-3,
,,,-24.24639893,116.0000041E-3,
,,,-24.24320030,116.0000041E-3,
,,,-24.23999977,120.0000048E-3,
,,,-24.23679924,131.9999993E-3,
,,,-24.23359871,148.0000019E-3,
,,,-24.23040009,148.0000019E-3,
,,,-24.22719955,152.00001001E-3,
,,,-24.22399902,140.0000006E-3,
,,,-24.22080040,156.00000322E-3,
,,,-24.21759987,164.00000453E-3,
,,,-24.21439934,168.00001264E-3,
,,,-24.21119881,168.00001264E-3,
,,,-24.20800018,160.00001132E-3,
,,,-24.20479965,168.00001264E-3,
,,,-24.20159912,164.00000453E-3,
,,,-24.19840050,172.00000584E-3,
,,,-24.19519997,168.00001264E-3,
,,,-24.19199944,168.00001264E-3,
,,,-24.18879890,168.00001264E-3,
,,,-24.18560028,160.00001132E-3,
,,,-24.18239975,164.00000453E-3,
,,,-24.17919922,148.0000019E-3,
,,,-24.17599869,156.00000322E-3,
,,,-24.17280006,136.0000074E-3,
,,,-24.16959953,136.0000074E-3,
,,,-24.16639900,116.0000041E-3,
,,,-24.16320038,108.0000028E-3,
,,,-24.15999985,96.000000834E-3,
,,,-24.15679932,96.000000834E-3,
,,,-24.15359879,88.000006974E-3,
,,,-24.15040016,72.000004351E-3,
,,,-24.14719963,56.000001729E-3,
,,,-24.14399910,60.000002384E-3,
,,,-24.14080048,36.00000218E-3,
,,,-24.13759995,32.00000152E-3,
,,,-24.13439941,20.0000014E-3,
,,,-24.13119888,4.00000019E-3,
,,,-24.12800026,16.0000008E-3,
,,,-24.12479973,-8.000000380E-3,
,,,-24.12159920,-24.00000021E-3,
,,,-24.11840057,-28.00000086E-3,
,,,-24.11520004,4.00000019E-3,
,,,-24.11199951,-44.00000349E-3,
,,,-24.10879898,-44.00000349E-3,
,,,-24.10560036,-52.00000107E-3,
,,,-24.10239983,-68.000003695E-3,
,,,-24.09919930,-76.000005007E-3,
,,,-24.09599876,-76.000005007E-3,
,,,-24.09280014,-80.000005662E-3,
,,,-24.08959961,-80.000005662E-3,
,,,-24.08639908,-92.000007629E-3,
,,,-24.08320045,-104.0000021E-3,
,,,-24.07999992,-80.000005662E-3,
,,,-24.07679939,-104.0000021E-3,
,,,-24.07359886,-108.0000028E-3,
,,,-24.07040024,-112.0000035E-3,
,,,-24.06719971,-120.0000048E-3,
,,,-24.06399918,-120.0000048E-3,
,,,-24.06080055,-124.0000054E-3,
,,,-24.05760002,-120.0000048E-3,
,,,-24.05439949,-124.0000054E-3,
,,,-24.05119896,-116.0000041E-3,
,,,-24.04800034,-128.0000061E-3,
,,,-24.04479980,-131.9999993E-3,
,,,-24.04159927,-120.0000048E-3,
,,,-24.03839874,-124.0000054E-3,
,,,-24.03520012,-128.0000061E-3,
,,,-24.03199959,-120.0000048E-3,
,,,-24.02879906,-120.0000048E-3,
,,,-24.02560043,-104.0000021E-3,
,,,-24.02239990,-116.0000041E-3,
,,,-24.01919937,-112.0000035E-3,
,,,-24.01599884,-108.0000028E-3,
,,,-24.01280022,-104.0000021E-3,
,,,-24.00959969,-104.0000021E-3,
,,,-24.00639915,-96.000000834E-3,
,,,-24.00320053,-96.000000834E-3,
,,,-24.00000000,-92.000007629E-3,
,,,-23.99679947,-84.000006318E-3,
,,,-23.99359894,-84.000006318E-3,
,,,-23.99040031,-64.000003040E-3,
,,,-23.98719978,-68.000003695E-3,
,,,-23.98399925,-64.000003040E-3,
,,,-23.98079872,-60.000002384E-3,
,,,-23.97760010,-60.000002384E-3,
,,,-23.97439957,-48.00000042E-3,
,,,-23.97119904,-40.00000283E-3,
,,,-23.96800041,-36.00000218E-3,
,,,-23.96479988,-28.00000086E-3,
,,,-23.96159935,-20.0000014E-3,
,,,-23.95839882,-8.000000380E-3,
,,,-23.95520020,-4.00000019E-3,
,,,-23.95199966,-8.000000380E-3,
,,,-23.94879913,0.0,
,,,-23.94560051,8.000000380E-3,
,,,-23.94239998,4.00000019E-3,
,,,-23.93919945,12.0000001E-3,
,,,-23.93599892,16.0000008E-3,
,,,-23.93280029,16.0000008E-3,
,,,-23.92959976,24.00000021E-3,
,,,-23.92639923,28.00000086E-3,
,,,-23.92319870,28.00000086E-3,
,,,-23.92000008,32.00000152E-3,
,,,-23.91679955,36.00000218E-3,
,,,-23.91359901,32.00000152E-3,
,,,-23.91040039,28.00000086E-3,
,,,-23.90719986,32.00000152E-3,
,,,-23.90399933,36.00000218E-3,
,,,-23.90079880,32.00000152E-3,
,,,-23.89760017,28.00000086E-3,
,,,-23.89439964,28.00000086E-3,
,,,-23.89119911,36.00000218E-3,
,,,-23.88800049,20.0000014E-3,
,,,-23.88479996,20.0000014E-3,
,,,-23.88159943,24.00000021E-3,
,,,-23.87839890,28.00000086E-3,
,,,-23.87520027,20.0000014E-3,
,,,-23.87199974,24.00000021E-3,
,,,-23.86879921,36.00000218E-3,
,,,-23.86559868,28.00000086E-3,
,,,-23.86240005,24.00000021E-3,
,,,-23.85919952,8.000000380E-3,
,,,-23.85599899,12.0000001E-3,
,,,-23.85280037,12.0000001E-3,
,,,-23.84959984,16.0000008E-3,
,,,-23.84639931,12.0000001E-3,
,,,-23.84319878,8.000000380E-3,
,,,-23.84000015,8.000000380E-3,
,,,-23.83679962,8.000000380E-3,
,,,-23.83359909,4.00000019E-3,
,,,-23.83040047,4.00000019E-3,
,,,-23.82719994,-4.00000019E-3,
,,,-23.82399940,0.0,
,,,-23.82079887,0.0,
,,,-23.81760025,4.00000019E-3,
,,,-23.81439972,4.00000019E-3,
,,,-23.81119919,-4.00000019E-3,
,,,-23.80799866,-8.000000380E-3,
,,,-23.80480003,-36.00000218E-3,
,,,-23.80159950,0.0,
,,,-23.79839897,0.0,
,,,-23.79520035,-4.00000019E-3,
,,,-23.79199982,8.000000380E-3,
,,,-23.78879929,0.0,
,,,-23.78559875,-8.000000380E-3,
,,,-23.78240013,-8.000000380E-3,
,,,-23.77919960,-4.00000019E-3,
,,,-23.77599907,-20.0000014E-3,
,,,-23.77280045,-12.0000001E-3,
,,,-23.76959991,-8.000000380E-3,
,,,-23.76639938,-12.0000001E-3,
,,,-23.76319885,0.0,
,,,-23.76000023,-8.000000380E-3,
,,,-23.75679970,-12.0000001E-3,
,,,-23.75359917,-16.0000008E-3,
,,,-23.75040054,-24.00000021E-3,
,,,-23.74720001,-24.00000021E-3,
,,,-23.74399948,-16.0000008E-3,
,,,-23.74079895,-20.0000014E-3,
,,,-23.73760033,-20.0000014E-3,
,,,-23.73439980,-24.00000021E-3,
,,,-23.73119926,-24.00000021E-3,
,,,-23.72799873,-32.00000152E-3,
,,,-23.72480011,-28.00000086E-3,
,,,-23.72159958,-40.00000283E-3,
,,,-23.71839905,-28.00000086E-3,
,,,-23.71520042,-28.00000086E-3,
,,,-23.71199989,-24.00000021E-3,
,,,-23.70879936,-36.00000218E-3,
,,,-23.70559883,-36.00000218E-3,
,,,-23.70240021,-32.00000152E-3,
,,,-23.69919968,-32.00000152E-3,
,,,-23.69599915,-32.00000152E-3,
,,,-23.69280052,-36.00000218E-3,
,,,-23.68959999,-36.00000218E-3,
,,,-23.68639946,-36.00000218E-3,
,,,-23.68319893,-36.00000218E-3,
,,,-23.68000031,-32.00000152E-3,
,,,-23.67679977,-32.00000152E-3,
,,,-23.67359924,-28.00000086E-3,
,,,-23.67039871,-20.0000014E-3,
,,,-23.66720009,-28.00000086E-3,
,,,-23.66399956,-28.00000086E-3,
,,,-23.66079903,-28.00000086E-3,
,,,-23.65760040,-32.00000152E-3,
,,,-23.65439987,-20.0000014E-3,
,,,-23.65119934,-24.00000021E-3,
,,,-23.64799881,-12.0000001E-3,
,,,-23.64480019,-12.0000001E-3,
,,,-23.64159966,-12.0000001E-3,
,,,-23.63839912,-8.000000380E-3,
,,,-23.63520050,-4.00000019E-3,
,,,-23.63199997,-4.00000019E-3,
,,,-23.62879944,-8.000000380E-3,
,,,-23.62559891,0.0,
,,,-23.62240028,4.00000019E-3,
,,,-23.61919975,4.00000019E-3,
,,,-23.61599922,12.0000001E-3,
,,,-23.61279869,4.00000019E-3,
,,,-23.60960007,12.0000001E-3,
,,,-23.60639954,8.000000380E-3,
,,,-23.60319901,8.000000380E-3,
,,,-23.60000038,8.000000380E-3,
,,,-23.59679985,12.0000001E-3,
,,,-23.59359932,12.0000001E-3,
,,,-23.59039879,16.0000008E-3,
,,,-23.58720016,16.0000008E-3,
,,,-23.58399963,4.00000019E-3,
,,,-23.58079910,4.00000019E-3,
,,,-23.57760048,0.0,
,,,-23.57439995,4.00000019E-3,
,,,-23.57119942,8.000000380E-3,
,,,-23.56799889,20.0000014E-3,
,,,-23.56480026,4.00000019E-3,
,,,-23.56159973,4.00000019E-3,
,,,-23.55839920,4.00000019E-3,
,,,-23.55519867,8.000000380E-3,
,,,-23.55200005,4.00000019E-3,
,,,-23.54879951,0.0,
,,,-23.54559898,4.00000019E-3,
,,,-23.54240036,4.00000019E-3,
,,,-23.53919983,4.00000019E-3,
,,,-23.53599930,8.000000380E-3,
,,,-23.53279877,0.0,
,,,-23.52960014,-4.00000019E-3,
,,,-23.52639961,-4.00000019E-3,
,,,-23.52319908,4.00000019E-3,
,,,-23.52000046,-4.00000019E-3,
,,,-23.51679993,-8.000000380E-3,
,,,-23.51359940,4.00000019E-3,
,,,-23.51039886,-4.00000019E-3,
,,,-23.50720024,8.000000380E-3,
,,,-23.50399971,4.00000019E-3,
,,,-23.50079918,8.000000380E-3,
,,,-23.49759865,8.000000380E-3,
,,,-23.49440002,8.000000380E-3,
,,,-23.49119949,12.0000001E-3,
,,,-23.48799896,12.0000001E-3,
,,,-23.48480034,4.00000019E-3,
,,,-23.48159981,16.0000008E-3,
,,,-23.47839928,12.0000001E-3,
,,,-23.47519875,8.000000380E-3,
,,,-23.47200012,24.00000021E-3,
,,,-23.46879959,16.0000008E-3,
,,,-23.46559906,16.0000008E-3,
,,,-23.46240044,8.000000380E-3,
,,,-23.45919991,8.000000380E-3,
,,,-23.45599937,8.000000380E-3,
,,,-23.45279884,4.00000019E-3,
,,,-23.44960022,16.0000008E-3,
,,,-23.44639969,8.000000380E-3,
,,,-23.44319916,12.0000001E-3,
,,,-23.44000053,12.0000001E-3,
,,,-23.43680000,4.00000019E-3,
,,,-23.43359947,28.00000086E-3,
,,,-23.43039894,32.00000152E-3,
,,,-23.42720032,24.00000021E-3,
,,,-23.42399979,28.00000086E-3,
,,,-23.42079926,36.00000218E-3,
,,,-23.41759872,36.00000218E-3,
,,,-23.41440010,44.00000349E-3,
,,,-23.41119957,64.000003040E-3,
,,,-23.40799904,60.000002384E-3,
,,,-23.40480042,68.000003695E-3,
,,,-23.40159988,80.000005662E-3,
,,,-23.39839935,84.000006318E-3,
,,,-23.39519882,88.000006974E-3,
,,,-23.39200020,88.000006974E-3,
,,,-23.38879967,96.000000834E-3,
,,,-23.38559914,108.0000028E-3,
,,,-23.38240051,108.0000028E-3,
,,,-23.37919998,120.0000048E-3,
,,,-23.37599945,120.0000048E-3,
,,,-23.37279892,120.0000048E-3,
,,,-23.36960030,131.9999993E-3,
,,,-23.36639977,131.9999993E-3,
,,,-23.36319923,124.0000054E-3,
,,,-23.35999870,131.9999993E-3,
,,,-23.35680008,128.0000061E-3,
,,,-23.35359955,136.0000074E-3,
,,,-23.35039902,136.0000074E-3,
,,,-23.34720039,124.0000054E-3,
,,,-23.34399986,124.0000054E-3,
,,,-23.34079933,120.0000048E-3,
,,,-23.33759880,116.0000041E-3,
,,,-23.33440018,120.0000048E-3,
,,,-23.33119965,108.0000028E-3,
,,,-23.32799911,104.0000021E-3,
,,,-23.32480049,96.000000834E-3,
,,,-23.32159996,92.000007629E-3,
,,,-23.31839943,84.000006318E-3,
,,,-23.31519890,80.000005662E-3,
,,,-23.31200027,72.000004351E-3,
,,,-23.30879974,60.000002384E-3,
,,,-23.30559921,56.000001729E-3,
,,,-23.30239868,52.00000107E-3,
,,,-23.29920006,20.0000014E-3,
,,,-23.29599953,28.00000086E-3,
,,,-23.29279900,16.0000008E-3,
,,,-23.28960037,12.0000001E-3,
,,,-23.28639984,12.0000001E-3,
,,,-23.28319931,0.0,
,,,-23.27999878,-4.00000019E-3,
,,,-23.27680016,-20.0000014E-3,
,,,-23.27359962,-28.00000086E-3,
,,,-23.27039909,-40.00000283E-3,
,,,-23.26720047,-36.00000218E-3,
,,,-23.26399994,-48.00000042E-3,
,,,-23.26079941,-56.000001729E-3,
,,,-23.25759888,-64.000003040E-3,
,,,-23.25440025,-72.000004351E-3,
,,,-23.25119972,-84.000006318E-3,
,,,-23.24799919,-68.000003695E-3,
,,,-23.24479866,-80.000005662E-3,
,,,-23.24160004,-100.0000015E-3,
,,,-23.23839951,-60.000002384E-3,
,,,-23.23519897,-100.0000015E-3,
,,,-23.23200035,-108.0000028E-3,
,,,-23.22879982,-112.0000035E-3,
,,,-23.22559929,-108.0000028E-3,
,,,-23.22239876,-116.0000041E-3,
,,,-23.21920013,-120.0000048E-3,
,,,-23.21599960,-124.0000054E-3,
,,,-23.21279907,-116.0000041E-3,
,,,-23.20960045,-112.0000035E-3,
,,,-23.20639992,-120.0000048E-3,
,,,-23.20319939,-124.0000054E-3,
,,,-23.19999886,-124.0000054E-3,
,,,-23.19680023,-124.0000054E-3,
,,,-23.19359970,-120.0000048E-3,
,,,-23.19039917,-116.0000041E-3,
,,,-23.18719864,-124.0000054E-3,
,,,-23.18400002,-124.0000054E-3,
,,,-23.18079948,-116.0000041E-3,
,,,-23.17759895,-112.0000035E-3,
,,,-23.17440033,-128.0000061E-3,
,,,-23.17119980,-108.0000028E-3,
,,,-23.16799927,-108.0000028E-3,
,,,-23.16479874,-108.0000028E-3,
,,,-23.16160011,-96.000000834E-3,
,,,-23.15839958,-88.000006974E-3,
,,,-23.15519905,-96.000000834E-3,
,,,-23.15200043,-108.0000028E-3,
,,,-23.14879990,-92.000007629E-3,
,,,-23.14559937,-92.000007629E-3,
,,,-23.14239883,-88.000006974E-3,
,,,-23.13920021,-84.000006318E-3,
,,,-23.13599968,-88.000006974E-3,
,,,-23.13279915,-84.000006318E-3,
,,,-23.12960052,-84.000006318E-3,
,,,-23.12639999,-76.000005007E-3,
,,,-23.12319946,-72.000004351E-3,
,,,-23.11999893,-72.000004351E-3,
,,,-23.11680031,-72.000004351E-3,
,,,-23.11359978,-72.000004351E-3,
,,,-23.11039925,-60.000002384E-3,
,,,-23.10719872,-72.000004351E-3,
,,,-23.10400009,-68.000003695E-3,
,,,-23.10079956,-60.000002384E-3,
,,,-23.09759903,-60.000002384E-3,
,,,-23.09440041,-64.000003040E-3,
,,,-23.09119987,-72.000004351E-3,
,,,-23.08799934,-76.000005007E-3,
,,,-23.08479881,-68.000003695E-3,
,,,-23.08160019,-60.000002384E-3,
,,,-23.07839966,-92.000007629E-3,
,,,-23.07519913,-68.000003695E-3,
,,,-23.07200050,-76.000005007E-3,
,,,-23.06879997,-64.000003040E-3,
,,,-23.06559944,-72.000004351E-3,
,,,-23.06239891,-76.000005007E-3,
,,,-23.05920029,-64.000003040E-3,
,,,-23.05599976,-64.000003040E-3,
,,,-23.05279922,-100.0000015E-3,
,,,-23.04959869,-124.0000054E-3,
,,,-23.04640007,-156.00000322E-3,
,,,-23.04319954,-176.00001395E-3,
,,,-23.03999901,-192.00000167E-3,
,,,-23.03680038,-204.00001109E-3,
,,,-23.03359985,-220.00001371E-3,
,,,-23.03039932,-224.00000691E-3,
,,,-23.02719879,-232.00000823E-3,
,,,-23.02400017,-236.00001633E-3,
,,,-23.02079964,-236.00001633E-3,
,,,-23.01759911,-228.00001502E-3,
,,,-23.01440048,-220.00001371E-3,
,,,-23.01119995,-208.00000429E-3,
,,,-23.00799942,-224.00000691E-3,
,,,-23.00479889,-168.00001264E-3,
,,,-23.00160027,-172.00000584E-3,
,,,-22.99839973,-140.0000006E-3,
,,,-22.99519920,-120.0000048E-3,
,,,-22.99199867,-100.0000015E-3,
,,,-22.98880005,-96.000000834E-3,
,,,-22.98559952,-44.00000349E-3,
,,,-22.98239899,-28.00000086E-3,
,,,-22.97920036,-12.0000001E-3,
,,,-22.97599983,28.00000086E-3,
,,,-22.97279930,36.00000218E-3,
,,,-22.96959877,72.000004351E-3,
,,,-22.96640015,104.0000021E-3,
,,,-22.96319962,140.0000006E-3,
,,,-22.95999908,164.00000453E-3,
,,,-22.95680046,196.00000978E-3,
,,,-22.95359993,220.00001371E-3,
,,,-22.95039940,248.00001085E-3,
,,,-22.94719887,232.00000823E-3,
,,,-22.94400024,288.00001740E-3,
,,,-22.94079971,308.00002813E-3,
,,,-22.93759918,344.00001168E-3,
,,,-22.93439865,372.00000882E-3,
,,,-22.93120003,396.00002766E-3,
,,,-22.92799950,420.000016689E-3,
,,,-22.92479897,440.000027418E-3,
,,,-22.92160034,444.000035524E-3,
,,,-22.91839981,452.000021935E-3,
,,,-22.91519928,476.000010967E-3,
,,,-22.91199875,484.000027180E-3,
,,,-22.90880013,488.000035286E-3,
,,,-22.90559959,500.000000000E-3,
,,,-22.90239906,504.000008106E-3,
,,,-22.89920044,504.000008106E-3,
,,,-22.89599991,504.000008106E-3,
,,,-22.89279938,504.000008106E-3,
,,,-22.88959885,504.000008106E-3,
,,,-22.88640022,496.000021696E-3,
,,,-22.88319969,504.000008106E-3,
,,,-22.87999916,500.000000000E-3,
,,,-22.87679863,492.000013590E-3,
,,,-22.87360001,472.000032663E-3,
,,,-22.87039948,452.000021935E-3,
,,,-22.86719894,412.000030279E-3,
,,,-22.86400032,384.00000334E-3,
,,,-22.86079979,352.00002789E-3,
,,,-22.85759926,328.00000906E-3,
,,,-22.85439873,304.00002003E-3,
,,,-22.85120010,272.00001478E-3,
,,,-22.84799957,256.00001216E-3,
,,,-22.84479904,236.00001633E-3,
,,,-22.84160042,236.00001633E-3,
,,,-22.83839989,216.00000560E-3,
,,,-22.83519936,204.00001109E-3,
,,,-22.83199883,196.00000978E-3,
,,,-22.82880020,184.00001526E-3,
,,,-22.82559967,156.00000322E-3,
,,,-22.82239914,136.0000074E-3,
,,,-22.81920052,120.0000048E-3,
,,,-22.81599998,108.0000028E-3,
,,,-22.81279945,96.000000834E-3,
,,,-22.80959892,92.000007629E-3,
,,,-22.80640030,88.000006974E-3,
,,,-22.80319977,76.000005007E-3,
,,,-22.79999924,64.000003040E-3,
,,,-22.79679871,52.00000107E-3,
,,,-22.79360008,44.00000349E-3,
,,,-22.79039955,24.00000021E-3,
,,,-22.78719902,16.0000008E-3,
,,,-22.78400040,12.0000001E-3,
,,,-22.78079987,-8.000000380E-3,
,,,-22.77759933,-12.0000001E-3,
,,,-22.77439880,-24.00000021E-3,
,,,-22.77120018,-48.00000042E-3,
,,,-22.76799965,-44.00000349E-3,
,,,-22.76479912,-52.00000107E-3,
,,,-22.76160049,-68.000003695E-3,
,,,-22.75839996,-72.000004351E-3,
,,,-22.75519943,-88.000006974E-3,
,,,-22.75199890,-84.000006318E-3,
,,,-22.74880028,-108.0000028E-3,
,,,-22.74559975,-116.0000041E-3,
,,,-22.74239922,-116.0000041E-3,
,,,-22.73919868,-120.0000048E-3,
,,,-22.73600006,-124.0000054E-3,
,,,-22.73279953,-140.0000006E-3,
,,,-22.72959900,-136.0000074E-3,
,,,-22.72640038,-131.9999993E-3,
,,,-22.72319984,-131.9999993E-3,
,,,-22.71999931,-156.00000322E-3,
,,,-22.71679878,-164.00000453E-3,
,,,-22.71360016,-156.00000322E-3,
,,,-22.71039963,-188.00000846E-3,
,,,-22.70719910,-200.00000298E-3,
,,,-22.70400047,-208.00000429E-3,
,,,-22.70079994,-232.00000823E-3,
,,,-22.69759941,-252.00000405E-3,
,,,-22.69439888,-268.00000668E-3,
,,,-22.69120026,-280.00000119E-3,
,,,-22.68799973,-320.00002265E-3,
,,,-22.68479919,-316.00001454E-3,
,,,-22.68159866,-320.00002265E-3,
,,,-22.67840004,-340.00000358E-3,
,,,-22.67519951,-360.00001431E-3,
,,,-22.67199898,-360.00001431E-3,
,,,-22.66880035,-376.00001693E-3,
,,,-22.66559982,-392.00001955E-3,
,,,-22.66239929,-396.00002766E-3,
,,,-22.65919876,-412.000030279E-3,
,,,-22.65600014,-428.000032902E-3,
,,,-22.65279961,-432.000011206E-3,
,,,-22.64959908,-436.000019312E-3,
,,,-22.64640045,-440.000027418E-3,
,,,-22.64319992,-444.000035524E-3,
,,,-22.63999939,-440.000027418E-3,
,,,-22.63679886,-440.000027418E-3,
,,,-22.63360023,-440.000027418E-3,
,,,-22.63039970,-428.000032902E-3,
,,,-22.62719917,-408.000022173E-3,
,,,-22.62399864,-412.000030279E-3,
,,,-22.62080002,-400.00000596E-3,
,,,-22.61759949,-388.00001144E-3,
,,,-22.61439896,-376.00001693E-3,
,,,-22.61120033,-352.00002789E-3,
,,,-22.60799980,-332.00001717E-3,
,,,-22.60479927,-312.00000644E-3,
,,,-22.60159874,-284.00000930E-3,
,,,-22.59840012,-252.00000405E-3,
,,,-22.59519958,-204.00001109E-3,
,,,-22.59199905,-164.00000453E-3,
,,,-22.58880043,-120.0000048E-3,
,,,-22.58559990,-72.000004351E-3,
,,,-22.58239937,-28.00000086E-3,
,,,-22.57919884,0.0,
,,,-22.57600021,40.00000283E-3,
,,,-22.57279968,72.000004351E-3,
,,,-22.56959915,112.0000035E-3,
,,,-22.56639862,148.0000019E-3,
,,,-22.56320000,176.00001395E-3,
,,,-22.55999947,204.00001109E-3,
,,,-22.55679893,236.00001633E-3,
,,,-22.55360031,263.99999857E-3,
,,,-22.55039978,280.00000119E-3,
,,,-22.54719925,288.00001740E-3,
,,,-22.54399872,304.00002003E-3,
,,,-22.54080009,312.00000644E-3,
,,,-22.53759956,308.00002813E-3,
,,,-22.53439903,308.00002813E-3,
,,,-22.53120041,304.00002003E-3,
,,,-22.52799988,300.00001192E-3,
,,,-22.52479935,296.00000381E-3,
,,,-22.52159882,288.00001740E-3,
,,,-22.51840019,288.00001740E-3,
,,,-22.51519966,284.00000930E-3,
,,,-22.51199913,280.00000119E-3,
,,,-22.50879860,268.00000668E-3,
,,,-22.50559998,256.00001216E-3,
,,,-22.50239944,248.00001085E-3,
,,,-22.49919891,236.00001633E-3,
,,,-22.49600029,228.00001502E-3,
,,,-22.49279976,224.00000691E-3,
,,,-22.48959923,200.00000298E-3,
,,,-22.48639870,204.00001109E-3,
,,,-22.48320007,196.00000978E-3,
,,,-22.47999954,184.00001526E-3,
,,,-22.47679901,204.00001109E-3,
,,,-22.47360039,204.00001109E-3,
,,,-22.47039986,216.00000560E-3,
,,,-22.46719933,224.00000691E-3,
,,,-22.46399879,244.00001764E-3,
,,,-22.46080017,244.00001764E-3,
,,,-22.45759964,256.00001216E-3,
,,,-22.45439911,272.00001478E-3,
,,,-22.45120049,284.00000930E-3,
,,,-22.44799995,296.00000381E-3,
,,,-22.44479942,304.00002003E-3,
,,,-22.44159889,308.00002813E-3,
,,,-22.43840027,320.00002265E-3,
,,,-22.43519974,300.00001192E-3,
,,,-22.43199921,296.00000381E-3,
,,,-22.42879868,296.00000381E-3,
,,,-22.42560005,308.00002813E-3,
,,,-22.42239952,304.00002003E-3,
,,,-22.41919899,288.00001740E-3,
,,,-22.41600037,292.00002551E-3,
,,,-22.41279984,276.00002289E-3,
,,,-22.40959930,244.00001764E-3,
,,,-22.40639877,244.00001764E-3,
,,,-22.40320015,228.00001502E-3,
,,,-22.39999962,224.00000691E-3,
,,,-22.39679909,200.00000298E-3,
,,,-22.39360046,184.00001526E-3,
,,,-22.39039993,164.00000453E-3,
,,,-22.38719940,144.0000087E-3,
,,,-22.38399887,128.0000061E-3,
,,,-22.38080025,84.000006318E-3,
,,,-22.37759972,84.000006318E-3,
,,,-22.37439919,72.000004351E-3,
,,,-22.37119865,44.00000349E-3,
,,,-22.36800003,28.00000086E-3,
,,,-22.36479950,4.00000019E-3,
,,,-22.36159897,4.00000019E-3,
,,,-22.35840034,-32.00000152E-3,
,,,-22.35519981,-56.000001729E-3,
,,,-22.35199928,-76.000005007E-3,
,,,-22.34879875,-104.0000021E-3,
,,,-22.34560013,-120.0000048E-3,
,,,-22.34239960,-144.0000087E-3,
,,,-22.33919907,-172.00000584E-3,
,,,-22.33600044,-196.00000978E-3,
,,,-22.33279991,-216.00000560E-3,
,,,-22.32959938,-216.00000560E-3,
,,,-22.32639885,-240.00000954E-3,
,,,-22.32320023,-256.00001216E-3,
,,,-22.31999969,-272.00001478E-3,
,,,-22.31679916,-276.00002289E-3,
,,,-22.31359863,-288.00001740E-3,
,,,-22.31040001,-304.00002003E-3,
,,,-22.30719948,-300.00001192E-3,
,,,-22.30399895,-308.00002813E-3,
,,,-22.30080032,-292.00002551E-3,
,,,-22.29759979,-316.00001454E-3,
,,,-22.29439926,-320.00002265E-3,
,,,-22.29119873,-324.00000095E-3,
,,,-22.28800011,-312.00000644E-3,
,,,-22.28479958,-316.00001454E-3,
,,,-22.28159904,-320.00002265E-3,
,,,-22.27840042,-304.00002003E-3,
,,,-22.27519989,-300.00001192E-3,
,,,-22.27199936,-292.00002551E-3,
,,,-22.26879883,-280.00000119E-3,
,,,-22.26560020,-276.00002289E-3,
,,,-22.26239967,-248.00001085E-3,
,,,-22.25919914,-244.00001764E-3,
,,,-22.25599861,-232.00000823E-3,
,,,-22.25279999,-224.00000691E-3,
,,,-22.24959946,-196.00000978E-3,
,,,-22.24639893,-184.00001526E-3,
,,,-22.24320030,-168.00001264E-3,
,,,-22.23999977,-148.0000019E-3,
,,,-22.23679924,-131.9999993E-3,
,,,-22.23359871,-112.0000035E-3,
,,,-22.23040009,-100.0000015E-3,
,,,-22.22719955,-80.000005662E-3,
,,,-22.22399902,-52.00000107E-3,
,,,-22.22080040,-36.00000218E-3,
,,,-22.21759987,-12.0000001E-3,
,,,-22.21439934,12.0000001E-3,
,,,-22.21119881,36.00000218E-3,
,,,-22.20800018,52.00000107E-3,
,,,-22.20479965,68.000003695E-3,
,,,-22.20159912,88.000006974E-3,
,,,-22.19839859,112.0000035E-3,
,,,-22.19519997,124.0000054E-3,
,,,-22.19199944,136.0000074E-3,
,,,-22.18879890,148.0000019E-3,
,,,-22.18560028,164.00000453E-3,
,,,-22.18239975,176.00001395E-3,
,,,-22.17919922,188.00000846E-3,
,,,-22.17599869,200.00000298E-3,
,,,-22.17280006,212.00001240E-3,
,,,-22.16959953,208.00000429E-3,
,,,-22.16639900,220.00001371E-3,
,,,-22.16320038,224.00000691E-3,
,,,-22.15999985,236.00001633E-3,
,,,-22.15679932,244.00001764E-3,
,,,-22.15359879,240.00000954E-3,
,,,-22.15040016,252.00000405E-3,
,,,-22.14719963,244.00001764E-3,
,,,-22.14399910,236.00001633E-3,
,,,-22.14080048,224.00000691E-3,
,,,-22.13759995,236.00001633E-3,
,,,-22.13439941,236.00001633E-3,
,,,-22.13119888,220.00001371E-3,
,,,-22.12800026,212.00001240E-3,
,,,-22.12479973,208.00000429E-3,
,,,-22.12159920,192.00000167E-3,
,,,-22.11839867,176.00001395E-3,
,,,-22.11520004,160.00001132E-3,
,,,-22.11199951,140.0000006E-3,
,,,-22.10879898,136.0000074E-3,
,,,-22.10560036,104.0000021E-3,
,,,-22.10239983,84.000006318E-3,
,,,-22.09919930,76.000005007E-3,
,,,-22.09599876,56.000001729E-3,
,,,-22.09280014,40.00000283E-3,
,,,-22.08959961,16.0000008E-3,
,,,-22.08639908,-4.00000019E-3,
,,,-22.08320045,-24.00000021E-3,
,,,-22.07999992,-44.00000349E-3,
,,,-22.07679939,-68.000003695E-3,
,,,-22.07359886,-72.000004351E-3,
,,,-22.07040024,-92.000007629E-3,
,,,-22.06719971,-116.0000041E-3,
,,,-22.06399918,-124.0000054E-3,
,,,-22.06079865,-131.9999993E-3,
,,,-22.05760002,-148.0000019E-3,
,,,-22.05439949,-148.0000019E-3,
,,,-22.05119896,-156.00000322E-3,
,,,-22.04800034,-160.00001132E-3,
,,,-22.04479980,-148.0000019E-3,
,,,-22.04159927,-156.00000322E-3,
,,,-22.03839874,-164.00000453E-3,
,,,-22.03520012,-168.00001264E-3,
,,,-22.03199959,-168.00001264E-3,
,,,-22.02879906,-176.00001395E-3,
,,,-22.02560043,-168.00001264E-3,
,,,-22.02239990,-168.00001264E-3,
,,,-22.01919937,-164.00000453E-3,
,,,-22.01599884,-160.00001132E-3,
,,,-22.01280022,-152.00001001E-3,
,,,-22.00959969,-131.9999993E-3,
,,,-22.00639915,-112.0000035E-3,
,,,-22.00319862,-108.0000028E-3,
,,,-22.00000000,-92.000007629E-3,
,,,-21.99679947,-80.000005662E-3,
,,,-21.99359894,-60.000002384E-3,
,,,-21.99040031,-60.000002384E-3,
,,,-21.98719978,-32.00000152E-3,
,,,-21.98399925,-32.00000152E-3,
,,,-21.98079872,-36.00000218E-3,
,,,-21.97760010,-16.0000008E-3,
,,,-21.97439957,-12.0000001E-3,
,,,-21.97119904,0.0,
,,,-21.96800041,0.0,
,,,-21.96479988,12.0000001E-3,
,,,-21.96159935,28.00000086E-3,
,,,-21.95839882,28.00000086E-3,
,,,-21.95520020,32.00000152E-3,
,,,-21.95199966,44.00000349E-3,
,,,-21.94879913,48.00000042E-3,
,,,-21.94559860,52.00000107E-3,
,,,-21.94239998,64.000003040E-3,
,,,-21.93919945,72.000004351E-3,
,,,-21.93599892,80.000005662E-3,
,,,-21.93280029,76.000005007E-3,
,,,-21.92959976,76.000005007E-3,
,,,-21.92639923,72.000004351E-3,
,,,-21.92319870,72.000004351E-3,
,,,-21.92000008,76.000005007E-3,
,,,-21.91679955,72.000004351E-3,
,,,-21.91359901,84.000006318E-3,
,,,-21.91040039,88.000006974E-3,
,,,-21.90719986,76.000005007E-3,
,,,-21.90399933,72.000004351E-3,
,,,-21.90079880,72.000004351E-3,
,,,-21.89760017,64.000003040E-3,
,,,-21.89439964,56.000001729E-3,
,,,-21.89119911,76.000005007E-3,
,,,-21.88799858,56.000001729E-3,
,,,-21.88479996,64.000003040E-3,
,,,-21.88159943,56.000001729E-3,
,,,-21.87839890,56.000001729E-3,
,,,-21.87520027,48.00000042E-3,
,,,-21.87199974,44.00000349E-3,
,,,-21.86879921,52.00000107E-3,
,,,-21.86559868,52.00000107E-3,
,,,-21.86240005,48.00000042E-3,
,,,-21.85919952,48.00000042E-3,
,,,-21.85599899,52.00000107E-3,
,,,-21.85280037,52.00000107E-3,
,,,-21.84959984,52.00000107E-3,
,,,-21.84639931,56.000001729E-3,
,,,-21.84319878,52.00000107E-3,
,,,-21.84000015,44.00000349E-3,
,,,-21.83679962,48.00000042E-3,
,,,-21.83359909,48.00000042E-3,
,,,-21.83040047,52.00000107E-3,
,,,-21.82719994,36.00000218E-3,
,,,-21.82399940,48.00000042E-3,
,,,-21.82079887,52.00000107E-3,
,,,-21.81760025,36.00000218E-3,
,,,-21.81439972,40.00000283E-3,
,,,-21.81119919,32.00000152E-3,
,,,-21.80799866,28.00000086E-3,
,,,-21.80480003,44.00000349E-3,
,,,-21.80159950,32.00000152E-3,
,,,-21.79839897,28.00000086E-3,
,,,-21.79520035,36.00000218E-3,
,,,-21.79199982,32.00000152E-3,
,,,-21.78879929,32.00000152E-3,
,,,-21.78559875,40.00000283E-3,
,,,-21.78240013,48.00000042E-3,
,,,-21.77919960,44.00000349E-3,
,,,-21.77599907,44.00000349E-3,
,,,-21.77280045,60.000002384E-3,
,,,-21.76959991,52.00000107E-3,
,,,-21.76639938,44.00000349E-3,
,,,-21.76319885,52.00000107E-3,
,,,-21.76000023,52.00000107E-3,
,,,-21.75679970,48.00000042E-3,
,,,-21.75359917,52.00000107E-3,
,,,-21.75039864,52.00000107E-3,
,,,-21.74720001,52.00000107E-3,
,,,-21.74399948,36.00000218E-3,
,,,-21.74079895,44.00000349E-3,
,,,-21.73760033,44.00000349E-3,
,,,-21.73439980,36.00000218E-3,
,,,-21.73119926,40.00000283E-3,
,,,-21.72799873,36.00000218E-3,
,,,-21.72480011,32.00000152E-3,
,,,-21.72159958,28.00000086E-3,
,,,-21.71839905,32.00000152E-3,
,,,-21.71520042,24.00000021E-3,
,,,-21.71199989,28.00000086E-3,
,,,-21.70879936,16.0000008E-3,
,,,-21.70559883,32.00000152E-3,
,,,-21.70240021,16.0000008E-3,
,,,-21.69919968,16.0000008E-3,
,,,-21.69599915,8.000000380E-3,
,,,-21.69279861,8.000000380E-3,
,,,-21.68959999,0.0,
,,,-21.68639946,0.0,
,,,-21.68319893,4.00000019E-3,
,,,-21.68000031,0.0,
,,,-21.67679977,0.0,
,,,-21.67359924,0.0,
,,,-21.67039871,-4.00000019E-3,
,,,-21.66720009,-16.0000008E-3,
,,,-21.66399956,-20.0000014E-3,
,,,-21.66079903,-24.00000021E-3,
,,,-21.65760040,-20.0000014E-3,
,,,-21.65439987,-16.0000008E-3,
,,,-21.65119934,-28.00000086E-3,
,,,-21.64799881,-12.0000001E-3,
,,,-21.64480019,-24.00000021E-3,
,,,-21.64159966,-28.00000086E-3,
,,,-21.63839912,-20.0000014E-3,
,,,-21.63519859,-28.00000086E-3,
,,,-21.63199997,4.00000019E-3,
,,,-21.62879944,-20.0000014E-3,
,,,-21.62559891,-12.0000001E-3,
,,,-21.62240028,-12.0000001E-3,
,,,-21.61919975,-12.0000001E-3,
,,,-21.61599922,-8.000000380E-3,
,,,-21.61279869,-8.000000380E-3,
,,,-21.60960007,0.0,
,,,-21.60639954,0.0,
,,,-21.60319901,0.0,
,,,-21.60000038,0.0,
,,,-21.59679985,0.0,
,,,-21.59359932,-4.00000019E-3,
,,,-21.59039879,-4.00000019E-3,
,,,-21.58720016,-12.0000001E-3,
,,,-21.58399963,-28.00000086E-3,
,,,-21.58079910,-28.00000086E-3,
,,,-21.57759857,-24.00000021E-3,
,,,-21.57439995,-36.00000218E-3,
,,,-21.57119942,-44.00000349E-3,
,,,-21.56799889,-56.000001729E-3,
,,,-21.56480026,-60.000002384E-3,
,,,-21.56159973,-64.000003040E-3,
,,,-21.55839920,-72.000004351E-3,
,,,-21.55519867,-72.000004351E-3,
,,,-21.55200005,-80.000005662E-3,
,,,-21.54879951,-92.000007629E-3,
,,,-21.54559898,-88.000006974E-3,
,,,-21.54240036,-84.000006318E-3,
,,,-21.53919983,-84.000006318E-3,
,,,-21.53599930,-84.000006318E-3,
,,,-21.53279877,-80.000005662E-3,
,,,-21.52960014,-76.000005007E-3,
,,,-21.52639961,-84.000006318E-3,
,,,-21.52319908,-80.000005662E-3,
,,,-21.51999855,-92.000007629E-3,
,,,-21.51679993,-84.000006318E-3,
,,,-21.51359940,-88.000006974E-3,
,,,-21.51039886,-80.000005662E-3,
,,,-21.50720024,-96.000000834E-3,
,,,-21.50399971,-100.0000015E-3,
,,,-21.50079918,-100.0000015E-3,
,,,-21.49759865,-112.0000035E-3,
,,,-21.49440002,-100.0000015E-3,
,,,-21.49119949,-100.0000015E-3,
,,,-21.48799896,-104.0000021E-3,
,,,-21.48480034,-108.0000028E-3,
,,,-21.48159981,-112.0000035E-3,
,,,-21.47839928,-108.0000028E-3,
,,,-21.47519875,-96.000000834E-3,
,,,-21.47200012,-92.000007629E-3,
,,,-21.46879959,-100.0000015E-3,
,,,-21.46559906,-92.000007629E-3,
,,,-21.46240044,-88.000006974E-3,
,,,-21.45919991,-76.000005007E-3,
,,,-21.45599937,-68.000003695E-3,
,,,-21.45279884,-48.00000042E-3,
,,,-21.44960022,-60.000002384E-3,
,,,-21.44639969,-56.000001729E-3,
,,,-21.44319916,-52.00000107E-3,
,,,-21.43999863,-28.00000086E-3,
,,,-21.43680000,-36.00000218E-3,
,,,-21.43359947,-36.00000218E-3,
,,,-21.43039894,-28.00000086E-3,
,,,-21.42720032,-16.0000008E-3,
,,,-21.42399979,-16.0000008E-3,
,,,-21.42079926,-16.0000008E-3,
,,,-21.41759872,-12.0000001E-3,
,,,-21.41440010,-12.0000001E-3,
,,,-21.41119957,-8.000000380E-3,
,,,-21.40799904,4.00000019E-3,
,,,-21.40480042,-12.0000001E-3,
,,,-21.40159988,-12.0000001E-3,
,,,-21.39839935,-4.00000019E-3,
,,,-21.39519882,-20.0000014E-3,
,,,-21.39200020,-20.0000014E-3,
,,,-21.38879967,-24.00000021E-3,
,,,-21.38559914,-28.00000086E-3,
,,,-21.38239861,-28.00000086E-3,
,,,-21.37919998,-44.00000349E-3,
,,,-21.37599945,-44.00000349E-3,
,,,-21.37279892,-52.00000107E-3,
,,,-21.36960030,-52.00000107E-3,
,,,-21.36639977,-56.000001729E-3,
,,,-21.36319923,-60.000002384E-3,
,,,-21.35999870,-60.000002384E-3,
,,,-21.35680008,-68.000003695E-3,
,,,-21.35359955,-68.000003695E-3,
,,,-21.35039902,-76.000005007E-3,
,,,-21.34720039,-72.000004351E-3,
,,,-21.34399986,-76.000005007E-3,
,,,-21.34079933,-84.000006318E-3,
,,,-21.33759880,-68.000003695E-3,
,,,-21.33440018,-68.000003695E-3,
,,,-21.33119965,-48.00000042E-3,
,,,-21.32799911,-64.000003040E-3,
,,,-21.32479858,-52.00000107E-3,
,,,-21.32159996,-48.00000042E-3,
,,,-21.31839943,-48.00000042E-3,
,,,-21.31519890,-44.00000349E-3,
,,,-21.31200027,-40.00000283E-3,
,,,-21.30879974,-36.00000218E-3,
,,,-21.30559921,-20.0000014E-3,
,,,-21.30239868,-32.00000152E-3,
,,,-21.29920006,-24.00000021E-3,
,,,-21.29599953,-24.00000021E-3,
,,,-21.29279900,-40.00000283E-3,
,,,-21.28960037,-20.0000014E-3,
,,,-21.28639984,0.0,
,,,-21.28319931,-8.000000380E-3,
,,,-21.27999878,-12.0000001E-3,
,,,-21.27680016,-8.000000380E-3,
,,,-21.27359962,4.00000019E-3,
,,,-21.27039909,8.000000380E-3,
,,,-21.26719856,4.00000019E-3,
,,,-21.26399994,24.00000021E-3,
,,,-21.26079941,28.00000086E-3,
,,,-21.25759888,48.00000042E-3,
,,,-21.25440025,36.00000218E-3,
,,,-21.25119972,36.00000218E-3,
,,,-21.24799919,48.00000042E-3,
,,,-21.24479866,52.00000107E-3,
,,,-21.24160004,64.000003040E-3,
,,,-21.23839951,76.000005007E-3,
,,,-21.23519897,80.000005662E-3,
,,,-21.23200035,84.000006318E-3,
,,,-21.22879982,92.000007629E-3,
,,,-21.22559929,104.0000021E-3,
,,,-21.22239876,104.0000021E-3,
,,,-21.21920013,108.0000028E-3,
,,,-21.21599960,112.0000035E-3,
,,,-21.21279907,112.0000035E-3,
,,,-21.20959854,112.0000035E-3,
,,,-21.20639992,104.0000021E-3,
,,,-21.20319939,108.0000028E-3,
,,,-21.19999886,104.0000021E-3,
,,,-21.19680023,104.0000021E-3,
,,,-21.19359970,100.0000015E-3,
,,,-21.19039917,108.0000028E-3,
,,,-21.18719864,84.000006318E-3,
,,,-21.18400002,88.000006974E-3,
,,,-21.18079948,68.000003695E-3,
,,,-21.17759895,60.000002384E-3,
,,,-21.17440033,64.000003040E-3,
,,,-21.17119980,52.00000107E-3,
,,,-21.16799927,56.000001729E-3,
,,,-21.16479874,52.00000107E-3,
,,,-21.16160011,48.00000042E-3,
,,,-21.15839958,40.00000283E-3,
,,,-21.15519905,36.00000218E-3,
,,,-21.15200043,36.00000218E-3,
,,,-21.14879990,16.0000008E-3,
,,,-21.14559937,20.0000014E-3,
,,,-21.14239883,20.0000014E-3,
,,,-21.13920021,20.0000014E-3,
,,,-21.13599968,24.00000021E-3,
,,,-21.13279915,12.0000001E-3,
,,,-21.12959862,16.0000008E-3,
,,,-21.12639999,24.00000021E-3,
,,,-21.12319946,24.00000021E-3,
,,,-21.11999893,12.0000001E-3,
,,,-21.11680031,16.0000008E-3,
,,,-21.11359978,16.0000008E-3,
,,,-21.11039925,8.000000380E-3,
,,,-21.10719872,12.0000001E-3,
,,,-21.10400009,4.00000019E-3,
,,,-21.10079956,-4.00000019E-3,
,,,-21.09759903,4.00000019E-3,
,,,-21.09440041,8.000000380E-3,
,,,-21.09119987,12.0000001E-3,
,,,-21.08799934,4.00000019E-3,
,,,-21.08479881,0.0,
,,,-21.08160019,0.0,
,,,-21.07839966,-8.000000380E-3,
,,,-21.07519913,-16.0000008E-3,
,,,-21.07199860,-12.0000001E-3,
,,,-21.06879997,-16.0000008E-3,
,,,-21.06559944,-16.0000008E-3,
,,,-21.06239891,-12.0000001E-3,
,,,-21.05920029,-12.0000001E-3,
,,,-21.05599976,-16.0000008E-3,
,,,-21.05279922,-8.000000380E-3,
,,,-21.04959869,-28.00000086E-3,
,,,-21.04640007,-12.0000001E-3,
,,,-21.04319954,-20.0000014E-3,
,,,-21.03999901,-28.00000086E-3,
,,,-21.03680038,-28.00000086E-3,
,,,-21.03359985,-32.00000152E-3,
,,,-21.03039932,-32.00000152E-3,
,,,-21.02719879,-32.00000152E-3,
,,,-21.02400017,-32.00000152E-3,
,,,-21.02079964,-36.00000218E-3,
,,,-21.01759911,-32.00000152E-3,
,,,-21.01439857,-44.00000349E-3,
,,,-21.01119995,-36.00000218E-3,
,,,-21.00799942,-36.00000218E-3,
,,,-21.00479889,-32.00000152E-3,
,,,-21.00160027,-36.00000218E-3,
,,,-20.99839973,-40.00000283E-3,
,,,-20.99519920,-40.00000283E-3,
,,,-20.99199867,-36.00000218E-3,
,,,-20.98880005,-32.00000152E-3,
,,,-20.98559952,-32.00000152E-3,
,,,-20.98239899,-28.00000086E-3,
,,,-20.97920036,-20.0000014E-3,
,,,-20.97599983,-20.0000014E-3,
,,,-20.97279930,-8.000000380E-3,
,,,-20.96959877,-16.0000008E-3,
,,,-20.96640015,-4.00000019E-3,
,,,-20.96319962,-4.00000019E-3,
,,,-20.95999908,4.00000019E-3,
,,,-20.95679855,12.0000001E-3,
,,,-20.95359993,12.0000001E-3,
,,,-20.95039940,16.0000008E-3,
,,,-20.94719887,20.0000014E-3,
,,,-20.94400024,24.00000021E-3,
,,,-20.94079971,28.00000086E-3,
,,,-20.93759918,40.00000283E-3,
,,,-20.93439865,44.00000349E-3,
,,,-20.93120003,44.00000349E-3,
,,,-20.92799950,72.000004351E-3,
,,,-20.92479897,44.00000349E-3,
,,,-20.92160034,56.000001729E-3,
,,,-20.91839981,56.000001729E-3,
,,,-20.91519928,64.000003040E-3,
,,,-20.91199875,64.000003040E-3,
,,,-20.90880013,72.000004351E-3,
,,,-20.90559959,64.000003040E-3,
,,,-20.90239906,80.000005662E-3,
,,,-20.89919853,80.000005662E-3,
,,,-20.89599991,84.000006318E-3,
,,,-20.89279938,76.000005007E-3,
,,,-20.88959885,76.000005007E-3,
,,,-20.88640022,68.000003695E-3,
,,,-20.88319969,68.000003695E-3,
,,,-20.87999916,64.000003040E-3,
,,,-20.87679863,56.000001729E-3,
,,,-20.87360001,40.00000283E-3,
,,,-20.87039948,36.00000218E-3,
,,,-20.86719894,28.00000086E-3,
,,,-20.86400032,16.0000008E-3,
,,,-20.86079979,4.00000019E-3,
,,,-20.85759926,-12.0000001E-3,
,,,-20.85439873,-24.00000021E-3,
,,,-20.85120010,-32.00000152E-3,
,,,-20.84799957,-32.00000152E-3,
,,,-20.84479904,-32.00000152E-3,
,,,-20.84160042,-52.00000107E-3,
,,,-20.83839989,-56.000001729E-3,
,,,-20.83519936,-56.000001729E-3,
,,,-20.83199883,-64.000003040E-3,
,,,-20.82880020,-76.000005007E-3,
,,,-20.82559967,-64.000003040E-3,
,,,-20.82239914,-68.000003695E-3,
,,,-20.81919861,-64.000003040E-3,
,,,-20.81599998,-68.000003695E-3,
,,,-20.81279945,-56.000001729E-3,
,,,-20.80959892,-64.000003040E-3,
,,,-20.80640030,-48.00000042E-3,
,,,-20.80319977,-36.00000218E-3,
,,,-20.79999924,-32.00000152E-3,
,,,-20.79679871,-20.0000014E-3,
,,,-20.79360008,-12.0000001E-3,
,,,-20.79039955,4.00000019E-3,
,,,-20.78719902,0.0,
,,,-20.78400040,32.00000152E-3,
,,,-20.78079987,24.00000021E-3,
,,,-20.77759933,44.00000349E-3,
,,,-20.77439880,48.00000042E-3,
,,,-20.77120018,64.000003040E-3,
,,,-20.76799965,72.000004351E-3,
,,,-20.76479912,80.000005662E-3,
,,,-20.76159859,92.000007629E-3,
,,,-20.75839996,104.0000021E-3,
,,,-20.75519943,108.0000028E-3,
,,,-20.75199890,124.0000054E-3,
,,,-20.74880028,128.0000061E-3,
,,,-20.74559975,136.0000074E-3,
,,,-20.74239922,140.0000006E-3,
,,,-20.73919868,152.00001001E-3,
,,,-20.73600006,148.0000019E-3,
,,,-20.73279953,168.00001264E-3,
,,,-20.72959900,164.00000453E-3,
,,,-20.72640038,176.00001395E-3,
,,,-20.72319984,184.00001526E-3,
,,,-20.71999931,188.00000846E-3,
,,,-20.71679878,196.00000978E-3,
,,,-20.71360016,180.00000715E-3,
,,,-20.71039963,184.00001526E-3,
,,,-20.70719910,176.00001395E-3,
,,,-20.70399857,164.00000453E-3,
,,,-20.70079994,148.0000019E-3,
,,,-20.69759941,124.0000054E-3,
,,,-20.69439888,116.0000041E-3,
,,,-20.69120026,96.000000834E-3,
,,,-20.68799973,80.000005662E-3,
,,,-20.68479919,60.000002384E-3,
,,,-20.68159866,40.00000283E-3,
,,,-20.67840004,20.0000014E-3,
,,,-20.67519951,12.0000001E-3,
,,,-20.67199898,-8.000000380E-3,
,,,-20.66880035,-32.00000152E-3,
,,,-20.66559982,-44.00000349E-3,
,,,-20.66239929,-56.000001729E-3,
,,,-20.65919876,-56.000001729E-3,
,,,-20.65600014,-72.000004351E-3,
,,,-20.65279961,-68.000003695E-3,
,,,-20.64959908,-68.000003695E-3,
,,,-20.64639854,-76.000005007E-3,
,,,-20.64319992,-84.000006318E-3,
,,,-20.63999939,-76.000005007E-3,
,,,-20.63679886,-84.000006318E-3,
,,,-20.63360023,-76.000005007E-3,
,,,-20.63039970,-72.000004351E-3,
,,,-20.62719917,-72.000004351E-3,
,,,-20.62399864,-88.000006974E-3,
,,,-20.62080002,-80.000005662E-3,
,,,-20.61759949,-92.000007629E-3,
,,,-20.61439896,-96.000000834E-3,
,,,-20.61120033,-104.0000021E-3,
,,,-20.60799980,-100.0000015E-3,
,,,-20.60479927,-96.000000834E-3,
,,,-20.60159874,-100.0000015E-3,
,,,-20.59840012,-108.0000028E-3,
,,,-20.59519958,-108.0000028E-3,
,,,-20.59199905,-92.000007629E-3,
,,,-20.58879852,-108.0000028E-3,
,,,-20.58559990,-88.000006974E-3,
,,,-20.58239937,-84.000006318E-3,
,,,-20.57919884,-80.000005662E-3,
,,,-20.57600021,-76.000005007E-3,
,,,-20.57279968,-68.000003695E-3,
,,,-20.56959915,-44.00000349E-3,
,,,-20.56639862,-40.00000283E-3,
,,,-20.56320000,-36.00000218E-3,
,,,-20.55999947,-36.00000218E-3,
,,,-20.55679893,-24.00000021E-3,
,,,-20.55360031,-12.0000001E-3,
,,,-20.55039978,-8.000000380E-3,
,,,-20.54719925,4.00000019E-3,
,,,-20.54399872,4.00000019E-3,
,,,-20.54080009,40.00000283E-3,
,,,-20.53759956,40.00000283E-3,
,,,-20.53439903,44.00000349E-3,
,,,-20.53120041,36.00000218E-3,
,,,-20.52799988,52.00000107E-3,
,,,-20.52479935,60.000002384E-3,
,,,-20.52159882,56.000001729E-3,
,,,-20.51840019,44.00000349E-3,
,,,-20.51519966,32.00000152E-3,
,,,-20.51199913,20.0000014E-3,
,,,-20.50879860,12.0000001E-3,
,,,-20.50559998,-24.00000021E-3,
,,,-20.50239944,-8.000000380E-3,
,,,-20.49919891,-12.0000001E-3,
,,,-20.49600029,-16.0000008E-3,
,,,-20.49279976,-28.00000086E-3,
,,,-20.48959923,-32.00000152E-3,
,,,-20.48639870,-32.00000152E-3,
,,,-20.48320007,-44.00000349E-3,
,,,-20.47999954,-40.00000283E-3,
,,,-20.47679901,-52.00000107E-3,
,,,-20.47360039,-56.000001729E-3,
,,,-20.47039986,-64.000003040E-3,
,,,-20.46719933,-52.00000107E-3,
,,,-20.46399879,-68.000003695E-3,
,,,-20.46080017,-56.000001729E-3,
,,,-20.45759964,-56.000001729E-3,
,,,-20.45439911,-52.00000107E-3,
,,,-20.45119858,-60.000002384E-3,
,,,-20.44799995,-56.000001729E-3,
,,,-20.44479942,-56.000001729E-3,
,,,-20.44159889,-40.00000283E-3,
,,,-20.43840027,-48.00000042E-3,
,,,-20.43519974,-40.00000283E-3,
,,,-20.43199921,-32.00000152E-3,
,,,-20.42879868,-20.0000014E-3,
,,,-20.42560005,-64.000003040E-3,
,,,-20.42239952,0.0,
,,,-20.41919899,0.0,
,,,-20.41600037,4.00000019E-3,
,,,-20.41279984,8.000000380E-3,
,,,-20.40959930,8.000000380E-3,
,,,-20.40639877,24.00000021E-3,
,,,-20.40320015,16.0000008E-3,
,,,-20.39999962,24.00000021E-3,
,,,-20.39679909,16.0000008E-3,
,,,-20.39359856,16.0000008E-3,
,,,-20.39039993,16.0000008E-3,
,,,-20.38719940,8.000000380E-3,
,,,-20.38399887,12.0000001E-3,
,,,-20.38080025,16.0000008E-3,
,,,-20.37759972,16.0000008E-3,
,,,-20.37439919,8.000000380E-3,
,,,-20.37119865,16.0000008E-3,
,,,-20.36800003,8.000000380E-3,
,,,-20.36479950,20.0000014E-3,
,,,-20.36159897,20.0000014E-3,
,,,-20.35840034,12.0000001E-3,
,,,-20.35519981,8.000000380E-3,
,,,-20.35199928,0.0,
,,,-20.34879875,4.00000019E-3,
,,,-20.34560013,12.0000001E-3,
,,,-20.34239960,12.0000001E-3,
,,,-20.33919907,20.0000014E-3,
,,,-20.33599854,8.000000380E-3,
,,,-20.33279991,0.0,
,,,-20.32959938,12.0000001E-3,
,,,-20.32639885,8.000000380E-3,
,,,-20.32320023,-4.00000019E-3,
,,,-20.31999969,-12.0000001E-3,
,,,-20.31679916,4.00000019E-3,
,,,-20.31359863,-20.0000014E-3,
,,,-20.31040001,-16.0000008E-3,
,,,-20.30719948,-24.00000021E-3,
,,,-20.30399895,-28.00000086E-3,
,,,-20.30080032,-28.00000086E-3,
,,,-20.29759979,-24.00000021E-3,
,,,-20.29439926,-12.0000001E-3,
,,,-20.29119873,-36.00000218E-3,
,,,-20.28800011,-40.00000283E-3,
,,,-20.28479958,-36.00000218E-3,
,,,-20.28159904,-44.00000349E-3,
,,,-20.27839851,-44.00000349E-3,
,,,-20.27519989,-48.00000042E-3,
,,,-20.27199936,-60.000002384E-3,
,,,-20.26879883,-64.000003040E-3,
,,,-20.26560020,-60.000002384E-3,
,,,-20.26239967,-60.000002384E-3,
,,,-20.25919914,-56.000001729E-3,
,,,-20.25599861,-52.00000107E-3,
,,,-20.25279999,-64.000003040E-3,
,,,-20.24959946,-60.000002384E-3,
,,,-20.24639893,-52.00000107E-3,
,,,-20.24320030,-52.00000107E-3,
,,,-20.23999977,-52.00000107E-3,
,,,-20.23679924,-52.00000107E-3,
,,,-20.23359871,-44.00000349E-3,
,,,-20.23040009,-56.000001729E-3,
,,,-20.22719955,-36.00000218E-3,
,,,-20.22399902,-48.00000042E-3,
,,,-20.22079849,-36.00000218E-3,
,,,-20.21759987,-36.00000218E-3,
,,,-20.21439934,-28.00000086E-3,
,,,-20.21119881,-40.00000283E-3,
,,,-20.20800018,-32.00000152E-3,
,,,-20.20479965,-28.00000086E-3,
,,,-20.20159912,-32.00000152E-3,
,,,-20.19839859,-24.00000021E-3,
,,,-20.19519997,-24.00000021E-3,
,,,-20.19199944,-24.00000021E-3,
,,,-20.18879890,-12.0000001E-3,
,,,-20.18560028,-24.00000021E-3,
,,,-20.18239975,-16.0000008E-3,
,,,-20.17919922,-20.0000014E-3,
,,,-20.17599869,-16.0000008E-3,
,,,-20.17280006,-16.0000008E-3,
,,,-20.16959953,-20.0000014E-3,
,,,-20.16639900,-20.0000014E-3,
,,,-20.16320038,-8.000000380E-3,
,,,-20.15999985,8.000000380E-3,
,,,-20.15679932,-8.000000380E-3,
,,,-20.15359879,-8.000000380E-3,
,,,-20.15040016,8.000000380E-3,
,,,-20.14719963,0.0,
,,,-20.14399910,12.0000001E-3,
,,,-20.14079857,4.00000019E-3,
,,,-20.13759995,12.0000001E-3,
,,,-20.13439941,20.0000014E-3,
,,,-20.13119888,8.000000380E-3,
,,,-20.12800026,4.00000019E-3,
,,,-20.12479973,-12.0000001E-3,
,,,-20.12159920,24.00000021E-3,
,,,-20.11839867,12.0000001E-3,
,,,-20.11520004,16.0000008E-3,
